SpectraSuite Data File
++++++++++++++++++++++++++++++++++++
Date: Mon Mar 10 17:41:58 EET 2014
User: OO Maya
Dark Spectrum Present: No
Reference Spectrum Present: No
Number of Sampled Component Spectra: 1
Spectrometers: MAYP11278
Integration Time (usec): 300000 (MAYP11278)
Spectra Averaged: 20 (MAYP11278)
Boxcar Smoothing: 0 (MAYP11278)
Correct for Electrical Dark: No (MAYP11278)
Strobe/Lamp Enabled: No (MAYP11278)
Correct for Detector Non-linearity: No (MAYP11278)
Correct for Stray Light: No (MAYP11278)
Number of Pixels in Processed Spectrum: 2068
>>>>>Begin Processed Spectral Data<<<<<
188,05	2307,65
188,53	2222,30
189,01	2194,25
189,49	2193,65
189,96	2694,95
190,44	2731,15
190,92	2731,45
191,40	2741,80
191,88	2771,10
192,36	2732,45
192,83	2720,85
193,31	2698,05
193,79	2730,30
194,27	2724,95
194,75	2743,05
195,23	2719,90
195,70	2759,05
196,18	2720,50
196,66	2726,15
197,14	2822,85
197,62	2730,70
198,09	2710,05
198,57	2715,30
199,05	2710,55
199,53	2745,30
200,01	2761,60
200,48	2725,95
200,96	2732,05
201,44	2759,75
201,92	2758,15
202,39	2761,00
202,87	2702,55
203,35	2754,05
203,83	2710,20
204,31	2757,60
204,78	2779,50
205,26	2720,70
205,74	2722,85
206,22	2786,30
206,69	2729,25
207,17	2750,85
207,65	2826,60
208,13	2744,65
208,60	2764,05
209,08	2734,15
209,56	2769,70
210,04	2758,75
210,51	2735,75
210,99	2733,05
211,47	2754,65
211,94	2742,45
212,42	2729,05
212,90	2802,15
213,38	2767,95
213,85	2730,85
214,33	2807,00
214,81	2751,90
215,29	2790,55
215,76	2757,95
216,24	2765,55
216,72	2767,25
217,19	2763,55
217,67	2729,25
218,15	2739,70
218,62	2788,35
219,10	2701,30
219,58	2727,95
220,05	2728,20
220,53	2740,95
221,01	2892,30
221,49	2735,60
221,96	2773,65
222,44	2731,75
222,92	2771,90
223,39	2737,90
223,87	2775,35
224,35	2749,15
224,82	2740,00
225,30	2718,60
225,78	2747,90
226,25	2720,70
226,73	2749,20
227,21	2786,95
227,68	2736,20
228,16	2763,65
228,63	2767,35
229,11	2772,45
229,59	2748,15
230,06	2749,05
230,54	2740,40
231,02	2775,15
231,49	2788,90
231,97	2748,75
232,45	2758,85
232,92	2720,00
233,40	2750,55
233,87	2765,40
234,35	2867,80
234,83	2763,30
235,30	2734,75
235,78	2733,05
236,25	2718,75
236,73	2778,15
237,21	2817,15
237,68	2741,40
238,16	2754,95
238,63	2752,05
239,11	2757,85
239,59	2752,10
240,06	2713,90
240,54	2770,35
241,01	2791,50
241,49	2752,35
241,96	2738,80
242,44	2780,15
242,92	2797,65
243,39	2721,05
243,87	2730,90
244,34	2781,30
244,82	2800,50
245,29	2739,60
245,77	2794,60
246,24	2786,90
246,72	2728,65
247,20	2755,60
247,67	2750,25
248,15	2761,30
248,62	2769,65
249,10	2709,40
249,57	2756,90
250,05	2783,50
250,52	2765,05
251,00	2802,70
251,47	2761,70
251,95	2817,30
252,42	2793,15
252,90	2737,95
253,37	2795,20
253,85	2755,25
254,32	2744,10
254,80	2762,10
255,27	2764,65
255,75	2782,75
256,22	2741,45
256,70	2764,55
257,17	2772,05
257,65	2785,95
258,12	2850,65
258,60	2769,55
259,07	2743,30
259,55	2764,30
260,02	2775,90
260,50	2816,60
260,97	2750,10
261,45	2743,65
261,92	2794,15
262,40	2728,20
262,87	2768,40
263,35	2763,70
263,82	2717,40
264,30	2782,60
264,77	2789,20
265,25	2750,35
265,72	2760,55
266,19	2771,20
266,67	2776,70
267,14	2746,75
267,62	2752,60
268,09	2763,40
268,57	2765,75
269,04	2710,80
269,51	2731,55
269,99	2745,05
270,46	2780,70
270,94	2794,95
271,41	2743,60
271,89	2761,80
272,36	2721,85
272,83	2726,45
273,31	2696,30
273,78	2760,90
274,26	2875,10
274,73	2782,90
275,20	2785,75
275,68	2742,50
276,15	2758,45
276,63	2775,35
277,10	2786,10
277,57	2716,75
278,05	2758,20
278,52	2723,90
279,00	2896,30
279,47	2744,70
279,94	2738,05
280,42	2884,90
280,89	2795,10
281,36	2855,45
281,84	2734,10
282,31	2799,10
282,78	2747,15
283,26	2755,55
283,73	2767,40
284,21	2741,20
284,68	2725,10
285,15	2777,80
285,63	2753,55
286,10	2769,20
286,57	2771,05
287,05	2718,85
287,52	2768,70
287,99	2812,70
288,47	2745,05
288,94	2773,90
289,41	2703,95
289,89	2793,50
290,36	2733,50
290,83	2768,85
291,30	2740,10
291,78	2780,90
292,25	2830,40
292,72	2732,05
293,20	2796,95
293,67	2746,40
294,14	2773,60
294,62	2768,10
295,09	2735,70
295,56	2769,30
296,03	2761,25
296,51	2817,80
296,98	2810,00
297,45	2772,45
297,93	2776,05
298,40	2781,70
298,87	2742,20
299,34	2808,45
299,82	2747,90
300,29	2773,95
300,76	2741,70
301,23	2792,00
301,71	2787,20
302,18	2782,20
302,65	2726,05
303,12	2786,50
303,60	2792,40
304,07	2733,10
304,54	2745,90
305,01	2737,25
305,49	2762,85
305,96	2772,25
306,43	2770,15
306,90	2776,85
307,38	2752,25
307,85	2744,40
308,32	2770,45
308,79	2751,65
309,27	2791,15
309,74	2790,85
310,21	2773,10
310,68	2766,50
311,15	2776,20
311,63	2741,55
312,10	2787,60
312,57	2760,35
313,04	2830,80
313,51	2741,45
313,99	2749,20
314,46	2764,75
314,93	2742,65
315,40	2741,35
315,87	2791,70
316,34	2777,30
316,82	2769,75
317,29	2785,05
317,76	2766,35
318,23	2860,05
318,70	2765,45
319,17	2750,40
319,65	2718,35
320,12	2775,10
320,59	2823,85
321,06	2784,25
321,53	2750,70
322,00	2707,75
322,48	2729,95
322,95	2822,10
323,42	2757,45
323,89	2841,40
324,36	2722,25
324,83	2766,20
325,30	2753,05
325,78	2754,35
326,25	2752,45
326,72	2747,70
327,19	2785,60
327,66	2769,10
328,13	2784,80
328,60	2765,25
329,07	2751,10
329,54	2745,05
330,02	2748,45
330,49	2735,70
330,96	2793,95
331,43	2776,50
331,90	2831,60
332,37	2738,35
332,84	2827,60
333,31	2784,95
333,78	2780,80
334,25	2805,25
334,72	2770,80
335,20	2781,85
335,67	2876,80
336,14	2732,65
336,61	2761,15
337,08	2748,15
337,55	2770,15
338,02	2738,65
338,49	2758,10
338,96	2808,55
339,43	2798,85
339,90	2726,45
340,37	2744,70
340,84	2723,50
341,31	2778,45
341,78	2799,15
342,25	2744,65
342,72	2766,30
343,19	2781,85
343,67	2770,75
344,14	2743,80
344,61	2757,25
345,08	2738,10
345,55	2760,80
346,02	2789,60
346,49	2740,80
346,96	2745,90
347,43	2815,85
347,90	2743,00
348,37	2800,00
348,84	2769,85
349,31	2719,40
349,78	2760,50
350,25	2782,75
350,72	2758,55
351,19	2733,35
351,66	2774,40
352,13	2825,00
352,60	2772,85
353,07	2752,90
353,54	2767,75
354,01	2783,35
354,48	2772,90
354,94	2783,15
355,41	2771,00
355,88	2816,05
356,35	2734,25
356,82	2816,20
357,29	2730,15
357,76	2842,85
358,23	2782,80
358,70	2725,25
359,17	2737,30
359,64	2743,75
360,11	2749,45
360,58	2790,55
361,05	2811,70
361,52	2750,45
361,99	2755,15
362,46	2760,20
362,93	2753,90
363,39	2760,00
363,86	2843,00
364,33	2784,80
364,80	2745,85
365,27	2778,60
365,74	2747,65
366,21	2719,45
366,68	2770,80
367,15	2765,30
367,62	3402,10
368,09	2704,90
368,55	2734,70
369,02	2789,05
369,49	2726,00
369,96	2791,10
370,43	2773,00
370,90	2746,75
371,37	2750,95
371,84	2780,65
372,31	2737,05
372,77	2716,95
373,24	2773,70
373,71	2770,65
374,18	2730,00
374,65	2734,95
375,12	2763,35
375,59	2716,40
376,05	2821,60
376,52	2749,55
376,99	2733,25
377,46	2724,45
377,93	2774,05
378,40	2773,75
378,86	2760,50
379,33	2767,75
379,80	2756,20
380,27	2784,75
380,74	2815,45
381,21	2766,35
381,67	2818,20
382,14	2825,90
382,61	2730,15
383,08	2795,00
383,55	2776,60
384,02	2826,50
384,48	2806,65
384,95	2984,85
385,42	2814,65
385,89	2814,20
386,36	2838,50
386,82	2935,30
387,29	2861,90
387,76	2879,05
388,23	2978,40
388,69	2996,75
389,16	3065,30
389,63	3037,45
390,10	3118,85
390,57	3146,55
391,03	3184,30
391,50	3210,70
391,97	3231,65
392,44	3261,25
392,90	3260,80
393,37	3286,25
393,84	3392,35
394,31	3324,90
394,77	3369,35
395,24	3335,80
395,71	3390,80
396,18	3548,20
396,64	3346,90
397,11	3417,10
397,58	3431,05
398,05	3368,80
398,51	3414,15
398,98	3388,90
399,45	3381,45
399,92	3440,15
400,38	3355,75
400,85	3368,65
401,32	3345,15
401,78	3364,90
402,25	3323,35
402,72	3301,35
403,18	3255,30
403,65	3298,20
404,12	3227,80
404,59	3244,60
405,05	3233,95
405,52	3196,70
405,99	3106,55
406,45	3145,90
406,92	3111,85
407,39	3157,45
407,85	3071,55
408,32	3059,90
408,79	3051,70
409,25	2998,20
409,72	3065,45
410,19	2974,70
410,65	3036,85
411,12	2971,15
411,59	3030,30
412,05	2958,75
412,52	2907,15
412,99	2959,95
413,45	2936,25
413,92	2949,70
414,39	2943,90
414,85	2976,90
415,32	2907,60
415,78	2966,25
416,25	2915,95
416,72	2902,30
417,18	2952,05
417,65	2897,95
418,12	2874,05
418,58	2881,85
419,05	2872,05
419,51	2892,30
419,98	2847,25
420,45	2885,05
420,91	2828,10
421,38	2851,40
421,84	2832,25
422,31	2863,20
422,78	2827,05
423,24	2836,35
423,71	2857,25
424,17	2871,55
424,64	2836,80
425,11	2866,85
425,57	2831,15
426,04	2874,50
426,50	2822,55
426,97	2867,05
427,43	2849,00
427,90	2860,05
428,37	2793,65
428,83	2859,30
429,30	2832,55
429,76	2821,65
430,23	2827,25
430,69	2933,65
431,16	2780,30
431,62	2812,95
432,09	2873,80
432,55	2858,25
433,02	2815,70
433,48	2795,10
433,95	2819,00
434,42	2805,20
434,88	2833,90
435,35	2780,50
435,81	2833,45
436,28	2819,45
436,74	2773,75
437,21	2841,80
437,67	2816,75
438,14	2821,40
438,60	2788,35
439,07	2804,20
439,53	2945,55
440,00	2824,55
440,46	2835,50
440,93	2852,10
441,39	2778,90
441,86	2802,90
442,32	2898,35
442,79	2777,85
443,25	2809,65
443,72	2817,70
444,18	2765,10
444,64	2863,10
445,11	2826,35
445,57	2811,65
446,04	2810,40
446,50	2810,65
446,97	2797,55
447,43	2809,55
447,90	2792,10
448,36	2782,15
448,83	2822,60
449,29	2821,60
449,75	2795,80
450,22	2771,25
450,68	2772,05
451,15	2790,35
451,61	2806,20
452,08	2827,25
452,54	2778,65
453,00	2839,50
453,47	2802,50
453,93	2792,45
454,40	2804,60
454,86	2817,25
455,32	2785,90
455,79	2801,40
456,25	2839,00
456,72	2783,10
457,18	2853,25
457,64	2789,95
458,11	2794,55
458,57	2768,20
459,04	2807,55
459,50	2802,65
459,96	2809,40
460,43	2790,60
460,89	2771,30
461,36	2854,50
461,82	2834,60
462,28	2774,15
462,75	2768,00
463,21	2844,15
463,67	2794,70
464,14	2810,05
464,60	2813,20
465,06	2770,30
465,53	2785,40
465,99	2833,85
466,45	2800,95
466,92	2815,70
467,38	2817,95
467,84	2798,25
468,31	2817,45
468,77	2816,00
469,23	2811,60
469,70	2778,90
470,16	2823,55
470,62	2810,90
471,09	2790,55
471,55	2792,60
472,01	2775,50
472,48	2800,25
472,94	2805,60
473,40	2866,50
473,87	2814,95
474,33	2786,05
474,79	2807,85
475,25	2785,55
475,72	2832,15
476,18	2812,50
476,64	2827,10
477,11	2811,95
477,57	2820,80
478,03	2865,75
478,49	2819,30
478,96	2855,90
479,42	2792,20
479,88	2882,20
480,35	2838,95
480,81	2835,90
481,27	2800,50
481,73	2818,00
482,20	2831,20
482,66	2796,30
483,12	2816,40
483,58	2787,80
484,05	2812,75
484,51	2887,65
484,97	2837,40
485,43	2832,80
485,89	2782,30
486,36	2827,25
486,82	2792,55
487,28	2847,50
487,74	2805,20
488,21	2800,15
488,67	2827,00
489,13	2846,55
489,59	2842,50
490,05	2876,20
490,52	2807,10
490,98	2848,55
491,44	2807,65
491,90	2825,70
492,36	2799,65
492,83	2883,95
493,29	2862,10
493,75	2851,90
494,21	2829,30
494,67	2839,80
495,14	2833,50
495,60	2828,00
496,06	2864,50
496,52	2842,40
496,98	2853,40
497,44	2923,50
497,91	2900,60
498,37	2847,00
498,83	2867,10
499,29	2859,30
499,75	2953,40
500,21	2874,20
500,67	2850,35
501,14	2869,35
501,60	2863,85
502,06	2896,10
502,52	2873,45
502,98	2878,60
503,44	2880,85
503,90	2900,80
504,37	2872,30
504,83	2900,40
505,29	2900,75
505,75	2869,70
506,21	2888,70
506,67	2917,00
507,13	2884,45
507,59	2913,85
508,05	2913,20
508,51	2876,40
508,98	2876,75
509,44	2861,35
509,90	2893,05
510,36	2899,75
510,82	2889,25
511,28	2942,70
511,74	2963,35
512,20	2883,45
512,66	2867,00
513,12	2893,65
513,58	2931,85
514,04	2857,40
514,51	2951,10
514,97	2988,65
515,43	2872,35
515,89	2935,60
516,35	2966,15
516,81	2959,85
517,27	3023,05
517,73	2953,55
518,19	2932,80
518,65	3075,10
519,11	2937,35
519,57	2917,85
520,03	2909,65
520,49	2925,90
520,95	2954,70
521,41	2961,05
521,87	2970,50
522,33	2951,20
522,79	2910,45
523,25	3017,20
523,71	2980,45
524,17	2942,15
524,63	3013,80
525,09	2976,20
525,55	2989,20
526,01	3015,55
526,47	2981,25
526,93	2966,20
527,39	2960,90
527,85	2962,40
528,31	2987,70
528,77	2989,60
529,23	2963,80
529,69	2951,10
530,15	2988,10
530,61	3002,70
531,07	2942,20
531,53	3015,65
531,99	2985,50
532,45	2982,05
532,91	2980,80
533,37	2999,10
533,83	2979,20
534,29	2952,75
534,75	2978,30
535,21	2968,35
535,67	3004,40
536,12	2979,30
536,58	3015,30
537,04	2965,05
537,50	3009,10
537,96	2990,50
538,42	2997,90
538,88	3061,40
539,34	3023,15
539,80	3199,20
540,26	2966,25
540,72	3065,50
541,18	3015,60
541,63	2973,70
542,09	3023,95
542,55	3014,75
543,01	2992,15
543,47	3109,85
543,93	2976,80
544,39	3075,90
544,85	3041,65
545,31	3004,70
545,76	3004,15
546,22	3057,10
546,68	3015,85
547,14	3026,80
547,60	3046,25
548,06	3022,50
548,52	3008,20
548,98	3011,40
549,43	2995,35
549,89	3097,70
550,35	3013,95
550,81	2984,10
551,27	3028,60
551,73	3025,45
552,19	3088,60
552,64	3031,05
553,10	2997,05
553,56	3042,55
554,02	3014,05
554,48	2992,45
554,93	3029,80
555,39	3032,75
555,85	3086,15
556,31	3026,55
556,77	3068,20
557,23	2978,05
557,68	3039,45
558,14	3096,15
558,60	3019,05
559,06	3015,50
559,52	2995,35
559,97	3008,75
560,43	2994,85
560,89	3033,05
561,35	3022,40
561,81	3028,30
562,26	3011,40
562,72	3002,30
563,18	3028,65
563,64	3054,70
564,09	3000,25
564,55	3036,15
565,01	3018,00
565,47	3015,70
565,92	3032,30
566,38	3065,20
566,84	3017,85
567,30	3006,30
567,75	3024,10
568,21	3050,40
568,67	3010,30
569,13	3009,05
569,58	3049,60
570,04	3024,00
570,50	3024,20
570,96	3046,40
571,41	3046,45
571,87	3022,25
572,33	3038,70
572,78	3039,35
573,24	2996,50
573,70	3009,20
574,16	3024,40
574,61	3062,65
575,07	3047,80
575,53	2976,85
575,98	3017,30
576,44	2962,50
576,90	3055,40
577,36	3005,55
577,81	3009,55
578,27	2981,85
578,73	3070,85
579,18	3017,65
579,64	2983,20
580,10	3022,10
580,55	3017,60
581,01	3007,65
581,47	3010,40
581,92	3013,40
582,38	3005,10
582,84	2966,50
583,29	3008,95
583,75	3012,35
584,21	2995,40
584,66	3024,65
585,12	2986,65
585,57	3099,00
586,03	2991,10
586,49	2997,95
586,94	2994,30
587,40	2994,15
587,86	3031,80
588,31	2967,55
588,77	3014,05
589,22	2990,60
589,68	2976,80
590,14	3008,95
590,59	3016,60
591,05	2981,45
591,51	2947,45
591,96	3033,85
592,42	2980,45
592,87	3000,50
593,33	2979,45
593,78	3010,00
594,24	2983,10
594,70	2979,00
595,15	3031,40
595,61	2974,05
596,06	2959,50
596,52	3028,75
596,98	3007,75
597,43	3024,60
597,89	2978,55
598,34	2937,05
598,80	2979,25
599,25	3013,00
599,71	2959,15
600,16	3002,20
600,62	3010,10
601,08	2986,25
601,53	2997,00
601,99	2938,55
602,44	3082,80
602,90	2955,70
603,35	2963,50
603,81	2918,40
604,26	2917,50
604,72	2978,75
605,17	2948,20
605,63	2984,70
606,08	2962,50
606,54	2913,60
606,99	2962,70
607,45	2947,30
607,90	2954,05
608,36	2974,50
608,81	2957,75
609,27	3043,80
609,72	2986,40
610,18	2950,65
610,63	2935,50
611,09	2966,40
611,54	2915,35
612,00	3010,35
612,45	2957,20
612,91	2948,10
613,36	3056,35
613,82	2907,40
614,27	2909,30
614,73	2908,95
615,18	2900,90
615,64	2930,65
616,09	2945,05
616,54	2905,40
617,00	2931,80
617,45	2934,55
617,91	2964,80
618,36	2909,80
618,82	2918,40
619,27	2927,55
619,72	2954,05
620,18	2921,85
620,63	2951,65
621,09	2973,90
621,54	2926,00
622,00	2956,30
622,45	2968,90
622,90	2962,30
623,36	2898,45
623,81	2897,90
624,27	2957,00
624,72	2887,00
625,17	2914,10
625,63	2927,00
626,08	2885,15
626,54	2912,90
626,99	2921,45
627,44	2888,95
627,90	2934,00
628,35	2940,10
628,81	2861,25
629,26	2909,80
629,71	2911,45
630,17	2885,90
630,62	2920,90
631,07	2904,60
631,53	2931,10
631,98	2915,35
632,43	2940,15
632,89	2878,85
633,34	2884,50
633,79	2874,80
634,25	2878,25
634,70	2867,25
635,15	2890,25
635,61	2876,85
636,06	2851,10
636,51	2889,70
636,97	2897,25
637,42	2862,90
637,87	2915,50
638,33	2922,90
638,78	2868,55
639,23	2888,55
639,69	2853,15
640,14	2843,85
640,59	2901,05
641,05	2913,70
641,50	2841,35
641,95	2867,85
642,40	2870,60
642,86	2845,45
643,31	2860,90
643,76	2893,55
644,22	2859,60
644,67	2841,30
645,12	2857,05
645,57	2841,40
646,03	2869,55
646,48	2875,60
646,93	2881,20
647,38	2892,50
647,84	2874,25
648,29	2873,20
648,74	2835,80
649,19	2905,00
649,65	2878,40
650,10	3017,95
650,55	2836,35
651,00	2838,30
651,46	2836,30
651,91	2873,60
652,36	2827,30
652,81	2848,65
653,27	2846,65
653,72	2831,35
654,17	2862,75
654,62	2864,90
655,07	2842,40
655,53	2818,80
655,98	2876,10
656,43	2826,70
656,88	2844,00
657,33	2874,05
657,79	2873,60
658,24	2825,95
658,69	2856,85
659,14	2820,35
659,59	3003,10
660,05	2826,70
660,50	2880,05
660,95	2841,65
661,40	2811,00
661,85	2839,65
662,30	2812,85
662,76	2791,40
663,21	2853,10
663,66	2828,90
664,11	2822,65
664,56	2832,75
665,01	2804,60
665,47	2838,60
665,92	2799,80
666,37	2846,30
666,82	2844,30
667,27	2921,70
667,72	2873,15
668,17	2810,10
668,62	2848,60
669,08	2804,85
669,53	2904,90
669,98	2779,90
670,43	2804,50
670,88	2874,90
671,33	2827,75
671,78	2892,05
672,23	2911,35
672,69	2824,30
673,14	2826,40
673,59	2864,60
674,04	2949,25
674,49	2828,35
674,94	2835,40
675,39	2780,05
675,84	2784,40
676,29	2823,70
676,74	2816,90
677,19	2811,50
677,64	2811,95
678,10	2907,05
678,55	2799,30
679,00	2804,40
679,45	2826,20
679,90	2793,90
680,35	2804,05
680,80	2817,75
681,25	2751,95
681,70	2756,05
682,15	2804,40
682,60	2810,95
683,05	2833,85
683,50	2823,85
683,95	2821,60
684,40	2844,70
684,85	2828,80
685,30	2818,05
685,75	2820,25
686,20	2795,55
686,65	2778,80
687,10	2808,15
687,55	2790,40
688,00	2808,20
688,45	2802,50
688,90	2903,95
689,35	2822,25
689,80	2760,10
690,25	2790,80
690,70	2800,40
691,15	2757,55
691,60	2800,10
692,05	2761,05
692,50	2798,55
692,95	2788,65
693,40	2817,85
693,85	2820,10
694,30	2798,05
694,75	2801,70
695,20	2963,40
695,65	2810,40
696,10	2798,00
696,55	2866,00
697,00	2792,75
697,45	2782,15
697,90	2807,20
698,35	2771,00
698,80	2823,50
699,24	2816,65
699,69	2781,30
700,14	2778,55
700,59	2818,80
701,04	2815,55
701,49	2942,95
701,94	2761,00
702,39	2844,85
702,84	2771,80
703,29	2775,50
703,74	2793,80
704,19	2783,85
704,63	2768,85
705,08	2836,00
705,53	2824,90
705,98	2821,20
706,43	2762,05
706,88	2809,10
707,33	2791,30
707,78	2783,65
708,22	2801,55
708,67	2820,20
709,12	2793,95
709,57	2776,80
710,02	2783,40
710,47	2786,10
710,92	2763,65
711,37	2800,25
711,81	2789,40
712,26	2791,15
712,71	2756,40
713,16	2863,85
713,61	2776,30
714,06	2792,70
714,50	2834,60
714,95	2812,10
715,40	2773,15
715,85	2789,75
716,30	2767,90
716,75	2772,20
717,19	2749,80
717,64	2734,00
718,09	2795,50
718,54	2838,70
718,99	2744,90
719,43	2748,65
719,88	2781,70
720,33	2772,20
720,78	2762,60
721,23	2788,50
721,67	2759,55
722,12	2795,55
722,57	2770,75
723,02	2743,90
723,47	2729,30
723,91	2782,00
724,36	2729,00
724,81	2794,25
725,26	2731,75
725,70	2765,75
726,15	2768,55
726,60	2773,95
727,05	2843,25
727,49	2741,15
727,94	2829,90
728,39	2789,75
728,84	2762,40
729,28	2811,95
729,73	2754,70
730,18	2805,45
730,63	2741,30
731,07	2773,55
731,52	2794,35
731,97	2773,55
732,41	2781,40
732,86	2744,65
733,31	2791,15
733,76	2778,25
734,20	2745,65
734,65	2793,95
735,10	2789,00
735,54	2769,35
735,99	2870,90
736,44	2744,80
736,89	2771,35
737,33	2798,55
737,78	2798,05
738,23	2771,75
738,67	2760,50
739,12	2768,80
739,57	2728,15
740,01	2807,35
740,46	2782,50
740,91	2738,20
741,35	2780,85
741,80	2791,20
742,25	2767,90
742,69	2772,15
743,14	2732,20
743,59	2740,50
744,03	2761,80
744,48	2806,25
744,92	2800,10
745,37	2787,05
745,82	2798,85
746,26	2819,30
746,71	2706,25
747,16	2736,30
747,60	2720,10
748,05	2784,50
748,49	2759,75
748,94	2752,05
749,39	2779,20
749,83	2874,85
750,28	2768,95
750,73	2759,70
751,17	2724,55
751,62	2752,50
752,06	2749,80
752,51	2756,40
752,95	2836,80
753,40	2748,15
753,85	2755,95
754,29	2729,65
754,74	2751,35
755,18	2726,65
755,63	2755,55
756,07	2759,30
756,52	2808,10
756,97	2750,60
757,41	2807,00
757,86	2764,45
758,30	2754,20
758,75	2758,10
759,19	2758,10
759,64	2729,75
760,08	2759,20
760,53	2769,90
760,98	2757,15
761,42	2779,10
761,87	2812,40
762,31	2748,80
762,76	2720,85
763,20	2752,70
763,65	2789,25
764,09	2758,30
764,54	2729,40
764,98	2741,05
765,43	2771,25
765,87	2726,20
766,32	2726,20
766,76	2742,15
767,21	2762,35
767,65	2760,75
768,10	2770,35
768,54	2779,50
768,99	2759,20
769,43	2830,45
769,88	2734,45
770,32	2762,00
770,77	2732,00
771,21	2725,90
771,65	2779,00
772,10	2770,95
772,54	2769,80
772,99	2718,80
773,43	2747,10
773,88	2748,35
774,32	2702,85
774,77	2755,35
775,21	2732,75
775,65	2767,60
776,10	2758,90
776,54	2723,55
776,99	2747,30
777,43	2738,15
777,88	2774,25
778,32	2775,60
778,76	2742,60
779,21	2771,10
779,65	2854,25
780,10	2808,65
780,54	2761,50
780,99	2792,85
781,43	2781,00
781,87	2727,15
782,32	2764,25
782,76	2723,85
783,20	2753,60
783,65	2774,40
784,09	2780,55
784,54	2749,95
784,98	2744,70
785,42	2744,75
785,87	2730,35
786,31	2774,70
786,75	2793,75
787,20	2792,95
787,64	2722,35
788,09	2742,45
788,53	2753,95
788,97	2733,75
789,42	2735,35
789,86	2742,40
790,30	2757,00
790,75	2713,90
791,19	2733,65
791,63	2788,55
792,08	2737,35
792,52	2760,65
792,96	2733,75
793,41	2911,60
793,85	2796,90
794,29	2755,80
794,74	2763,15
795,18	2760,00
795,62	2719,50
796,06	2764,85
796,51	2749,15
796,95	2756,20
797,39	2742,40
797,84	2716,20
798,28	2752,15
798,72	2791,90
799,16	2758,40
799,61	2729,50
800,05	2818,10
800,49	2768,85
800,94	2728,95
801,38	2767,10
801,82	2764,50
802,26	2726,65
802,71	2792,60
803,15	2818,75
803,59	2781,15
804,03	2770,50
804,48	2750,75
804,92	2741,90
805,36	2813,60
805,80	2838,05
806,25	2818,95
806,69	2777,90
807,13	2827,20
807,57	2749,50
808,01	2753,45
808,46	2731,80
808,90	2762,55
809,34	2753,75
809,78	2737,40
810,23	2725,80
810,67	2757,05
811,11	2805,50
811,55	2888,70
811,99	2739,15
812,44	2732,20
812,88	2773,70
813,32	2818,55
813,76	2783,60
814,20	2756,95
814,64	2781,55
815,09	2772,40
815,53	2761,95
815,97	2737,70
816,41	2728,60
816,85	2729,30
817,29	2774,70
817,74	2756,05
818,18	2788,70
818,62	2745,90
819,06	2779,25
819,50	2799,35
819,94	2738,45
820,39	2772,85
820,83	2742,55
821,27	2753,80
821,71	2733,90
822,15	2806,90
822,59	2725,55
823,03	2758,85
823,47	2756,95
823,92	2716,20
824,36	2759,20
824,80	2751,75
825,24	2765,40
825,68	2769,55
826,12	2725,60
826,56	2741,10
827,00	2700,25
827,44	2752,15
827,88	2777,85
828,33	2796,95
828,77	2733,25
829,21	2785,95
829,65	2765,20
830,09	2725,05
830,53	2814,10
830,97	2741,15
831,41	2843,95
831,85	2783,65
832,29	2773,00
832,73	2716,50
833,17	2757,45
833,61	2744,25
834,05	2803,35
834,49	2771,30
834,93	2747,50
835,37	2735,65
835,82	2795,20
836,26	2749,00
836,70	2766,30
837,14	2744,20
837,58	2793,90
838,02	2728,65
838,46	2737,15
838,90	2767,90
839,34	2747,15
839,78	2810,35
840,22	2842,90
840,66	2759,45
841,10	2801,25
841,54	2700,10
841,98	2734,15
842,42	2717,05
842,86	2734,40
843,30	2779,30
843,74	2750,85
844,18	2778,45
844,62	2759,20
845,06	2731,60
845,50	2769,60
845,94	2743,00
846,37	2781,35
846,81	2732,25
847,25	2727,60
847,69	2750,95
848,13	2730,20
848,57	2745,65
849,01	2740,05
849,45	2770,55
849,89	2796,50
850,33	2779,35
850,77	2733,65
851,21	2782,75
851,65	2726,70
852,09	2763,35
852,53	2783,50
852,97	2740,05
853,40	2728,40
853,84	2776,00
854,28	2717,75
854,72	2781,80
855,16	2715,30
855,60	2734,20
856,04	2787,70
856,48	2807,65
856,92	2749,30
857,36	2770,20
857,79	2754,60
858,23	2715,15
858,67	2796,65
859,11	2709,85
859,55	2723,85
859,99	2737,50
860,43	2745,85
860,87	2758,20
861,30	2778,05
861,74	2738,20
862,18	2748,40
862,62	2771,15
863,06	2734,10
863,50	2731,40
863,94	2781,15
864,37	2721,05
864,81	2754,45
865,25	2746,80
865,69	2709,55
866,13	2746,30
866,57	2704,45
867,00	2771,00
867,44	2733,75
867,88	2766,05
868,32	2745,90
868,76	2733,00
869,19	2766,35
869,63	2748,55
870,07	2806,00
870,51	2849,30
870,95	2715,20
871,38	2744,85
871,82	2752,60
872,26	2729,35
872,70	2755,20
873,14	2769,70
873,57	2745,65
874,01	2785,30
874,45	2773,80
874,89	2741,85
875,32	2714,50
875,76	2793,05
876,20	2698,90
876,64	2760,15
877,07	2747,35
877,51	2746,25
877,95	2756,75
878,39	2745,45
878,82	2762,40
879,26	2746,80
879,70	2811,00
880,14	2721,55
880,57	2710,50
881,01	2731,25
881,45	2752,65
881,89	2775,25
882,32	2746,30
882,76	2741,90
883,20	2743,30
883,63	2741,55
884,07	2722,75
884,51	2770,40
884,94	2748,90
885,38	2768,95
885,82	2778,35
886,26	2728,60
886,69	2728,65
887,13	2815,20
887,57	2718,90
888,00	2721,50
888,44	2749,30
888,88	2734,50
889,31	2877,55
889,75	2706,60
890,19	2776,55
890,62	2728,35
891,06	2768,40
891,50	2771,40
891,93	2710,20
892,37	2725,60
892,81	2737,35
893,24	2716,10
893,68	2735,65
894,11	2760,80
894,55	2729,90
894,99	2770,85
895,42	2742,75
895,86	2719,25
896,30	2750,50
896,73	2764,85
897,17	2728,00
897,60	2723,35
898,04	2730,85
898,48	2755,40
898,91	2787,75
899,35	2719,25
899,78	2723,45
900,22	2732,00
900,66	2782,30
901,09	2768,45
901,53	2731,05
901,96	2819,40
902,40	2823,85
902,84	2721,30
903,27	2742,65
903,71	2809,80
904,14	2723,90
904,58	2766,65
905,01	2726,55
905,45	2731,10
905,88	2721,85
906,32	2792,80
906,76	2747,40
907,19	2785,70
907,63	2765,55
908,06	2744,50
908,50	2766,50
908,93	2800,75
909,37	2735,50
909,80	2706,85
910,24	2759,90
910,67	2759,95
911,11	2747,45
911,54	2728,70
911,98	2733,70
912,41	2753,75
912,85	2742,25
913,28	2761,80
913,72	2760,25
914,15	2747,10
914,59	2709,70
915,02	2717,15
915,46	2734,60
915,89	2731,75
916,33	2773,50
916,76	2728,75
917,20	2783,40
917,63	2724,50
918,07	2778,35
918,50	2720,50
918,94	2747,40
919,37	2741,05
919,81	2764,90
920,24	2777,70
920,67	2754,00
921,11	2804,70
921,54	2760,40
921,98	2736,05
922,41	2714,35
922,85	2715,90
923,28	2752,75
923,72	2808,55
924,15	2763,80
924,58	2709,00
925,02	2771,00
925,45	2717,00
925,89	2775,30
926,32	2828,80
926,75	2738,60
927,19	2768,00
927,62	2708,10
928,06	2828,15
928,49	2749,75
928,92	2712,10
929,36	2785,05
929,79	2741,35
930,23	2758,55
930,66	2775,40
931,09	2729,30
931,53	2763,90
931,96	2704,75
932,39	2805,95
932,83	2782,85
933,26	2851,65
933,70	2742,65
934,13	2783,35
934,56	2783,90
935,00	2768,00
935,43	2758,50
935,86	2713,10
936,30	2740,85
936,73	2732,60
937,16	2758,15
937,60	2722,45
938,03	2773,55
938,46	2731,30
938,90	2735,15
939,33	2766,65
939,76	2715,40
940,19	2750,55
940,63	2787,90
941,06	2826,70
941,49	2735,55
941,93	2784,85
942,36	2725,15
942,79	2735,80
943,23	2767,85
943,66	2715,60
944,09	2711,90
944,52	2772,40
944,96	2767,40
945,39	2776,20
945,82	2751,90
946,26	2754,45
946,69	2758,15
947,12	2797,20
947,55	2744,95
947,99	2751,90
948,42	2766,30
948,85	2711,15
949,28	2710,75
949,72	2714,85
950,15	2847,10
950,58	2793,30
951,01	2739,75
951,45	2732,90
951,88	2763,35
952,31	2709,10
952,74	2772,40
953,17	2737,75
953,61	2814,10
954,04	2713,80
954,47	2723,40
954,90	2741,75
955,33	2730,85
955,77	2733,55
956,20	2761,70
956,63	2723,15
957,06	2770,30
957,49	2863,10
957,93	2709,85
958,36	2767,55
958,79	2753,30
959,22	2733,55
959,65	2727,95
960,08	2733,75
960,52	2690,35
960,95	2731,00
961,38	2770,30
961,81	2764,60
962,24	2781,30
962,67	2769,95
963,11	2724,80
963,54	2754,90
963,97	2738,50
964,40	2745,00
964,83	2746,85
965,26	2731,00
965,69	2776,15
966,13	2737,45
966,56	2742,80
966,99	2768,15
967,42	2727,80
967,85	2731,05
968,28	2786,85
968,71	2900,30
969,14	2773,30
969,57	2741,30
970,01	2760,75
970,44	2719,05
970,87	2732,20
971,30	2765,50
971,73	2730,40
972,16	2742,35
972,59	2712,05
973,02	2719,80
973,45	2743,75
973,88	2764,80
974,31	2736,15
974,74	2771,45
975,17	2757,55
975,61	2729,95
976,04	2735,05
976,47	2730,05
976,90	2753,90
977,33	2714,05
977,76	2770,60
978,19	2749,95
978,62	2742,95
979,05	2743,05
979,48	2739,30
979,91	2780,50
980,34	2765,70
980,77	2727,15
981,20	2756,60
981,63	2781,70
982,06	2743,60
982,49	2743,65
982,92	2730,90
983,35	2736,50
983,78	2723,95
984,21	2779,75
984,64	2779,15
985,07	2717,85
985,50	2692,30
985,93	2741,90
986,36	2781,60
986,79	2739,40
987,22	2725,55
987,65	2767,20
988,08	2746,75
988,51	2754,30
988,94	2742,05
989,37	2757,35
989,80	2743,90
990,23	2733,50
990,66	2752,20
991,09	2745,85
991,51	2758,90
991,94	2816,05
992,37	2737,15
992,80	2722,15
993,23	2742,80
993,66	2724,40
994,09	2727,05
994,52	2761,50
994,95	2768,30
995,38	2752,60
995,81	2752,95
996,24	2709,50
996,67	2716,50
997,09	2699,65
997,52	2786,25
997,95	2772,85
998,38	2725,90
998,81	2746,45
999,24	2715,95
999,67	2800,00
1000,10	2741,75
1000,53	2754,50
1000,95	2790,45
1001,38	2722,80
1001,81	2753,45
1002,24	2771,05
1002,67	2746,80
1003,10	2754,70
1003,53	2745,25
1003,95	2773,95
1004,38	2719,05
1004,81	2756,55
1005,24	2754,20
1005,67	2794,35
1006,10	2738,60
1006,52	2709,15
1006,95	2763,20
1007,38	2743,05
1007,81	2731,50
1008,24	2707,05
1008,67	2745,05
1009,09	2731,90
1009,52	2884,30
1009,95	2777,75
1010,38	2778,45
1010,81	2756,05
1011,23	2770,15
1011,66	2781,00
1012,09	2753,75
1012,52	2772,75
1012,95	2752,75
1013,37	2757,90
1013,80	2771,30
1014,23	2718,90
1014,66	2795,60
1015,08	2709,60
1015,51	2777,40
1015,94	2726,85
1016,37	2746,85
1016,80	2714,70
1017,22	2766,50
1017,65	2740,45
1018,08	3621,80
1018,51	2724,20
1018,93	2704,75
1019,36	2854,80
1019,79	2787,95
1020,21	2769,85
1020,64	2739,05
1021,07	2742,90
1021,50	2759,55
1021,92	2754,85
1022,35	2768,80
1022,78	2744,00
1023,21	2885,25
1023,63	2788,25
1024,06	2790,90
1024,49	2773,65
1024,91	2755,65
1025,34	2766,70
1025,77	2776,50
1026,19	2729,95
1026,62	2718,55
1027,05	2829,25
1027,47	2771,30
1027,90	2760,90
1028,33	2754,05
1028,75	2756,05
1029,18	2732,20
1029,61	2832,60
1030,03	2753,70
1030,46	2744,75
1030,89	2761,55
1031,31	2792,70
1031,74	2714,25
1032,17	2757,20
1032,59	2768,35
1033,02	2738,10
1033,45	2783,20
1033,87	2724,25
1034,30	2722,70
1034,73	2757,40
1035,15	2778,85
1035,58	2730,55
1036,00	2815,25
1036,43	2731,90
1036,86	2731,45
1037,28	2755,60
1037,71	2709,20
1038,13	2784,90
1038,56	2782,15
1038,99	2775,65
1039,41	2793,50
1039,84	2808,05
1040,26	2740,00
1040,69	2748,70
1041,11	2759,15
1041,54	2736,55
1041,97	2795,90
1042,39	2794,70
1042,82	2763,90
1043,24	2786,20
1043,67	2750,00
1044,09	2785,85
1044,52	2726,35
1044,95	2744,50
1045,37	2733,95
1045,80	2720,45
1046,22	2767,85
1046,65	2771,60
1047,07	2729,90
1047,50	2764,95
1047,92	2788,15
1048,35	2719,65
1048,77	2786,60
1049,20	2777,90
1049,62	2785,65
1050,05	2744,10
1050,47	2744,10
1050,90	2775,95
1051,32	2786,50
1051,75	2793,70
1052,17	2788,30
1052,60	2758,30
1053,02	2777,40
1053,45	2693,05
1053,87	2754,65
1054,30	2700,15
1054,72	2750,20
1055,15	2729,15
1055,57	2766,45
1056,00	2768,55
1056,42	2818,05
1056,85	2786,05
1057,27	2788,55
1057,70	2757,70
1058,12	2906,65
1058,54	2722,70
1058,97	2767,80
1059,39	2775,85
1059,82	2753,65
1060,24	2748,45
1060,67	2737,05
1061,09	2781,60
1061,51	2759,85
1061,94	2739,60
1062,36	2776,95
1062,79	2814,30
1063,21	2770,10
1063,64	2750,05
1064,06	2728,90
1064,48	2794,25
1064,91	2790,45
1065,33	2743,90
1065,76	2724,40
1066,18	2716,90
1066,60	2787,40
1067,03	2759,20
1067,45	2748,70
1067,87	2766,10
1068,30	2748,25
1068,72	2823,00
1069,15	2755,50
1069,57	2744,35
1069,99	2716,70
1070,42	2782,75
1070,84	2791,35
1071,26	2787,35
1071,69	2748,05
1072,11	2775,90
1072,53	2737,40
1072,96	2723,60
1073,38	2720,50
1073,80	2778,65
1074,23	2744,90
1074,65	2720,20
1075,07	2732,80
1075,50	2741,05
1075,92	2757,35
1076,34	2731,55
1076,77	2726,00
1077,19	2747,05
1077,61	2784,25
1078,04	2740,90
1078,46	2782,20
1078,88	2798,75
1079,30	2703,15
1079,73	2760,50
1080,15	2737,30
1080,57	2748,50
1081,00	2775,25
1081,42	2756,10
1081,84	2740,25
1082,26	2760,50
1082,69	2747,75
1083,11	2754,70
1083,53	2755,55
1083,95	2751,90
1084,38	2785,70
1084,80	2747,40
1085,22	2739,00
1085,64	2790,85
1086,07	2723,15
1086,49	2742,65
1086,91	2763,90
1087,33	2704,70
1087,76	2773,65
1088,18	3988,95
1088,60	2752,45
1089,02	2729,10
1089,45	2740,55
1089,87	2740,40
1090,29	2795,15
1090,71	2749,15
1091,13	2721,70
1091,56	2751,75
1091,98	2744,40
1092,40	2730,50
1092,82	2754,00
1093,24	2734,20
1093,66	2752,50
1094,09	2744,55
1094,51	2749,15
1094,93	2740,35
1095,35	2747,75
1095,77	2737,65
1096,19	2753,70
1096,62	2749,75
1097,04	2712,20
1097,46	2751,25
1097,88	2736,35
1098,30	2766,50
1098,72	2766,60
1099,15	2784,35
1099,57	2738,40
1099,99	2740,95
1100,41	2732,80
1100,83	2741,70
1101,25	2725,25
1101,67	2752,40
1102,09	2717,80
1102,52	2731,90
1102,94	2737,25
1103,36	2746,10
1103,78	2756,15
1104,20	2729,40
1104,62	2809,45
1105,04	2690,80
1105,46	2751,60
1105,88	2744,50
1106,30	2723,00
1106,73	2743,80
1107,15	2686,75
1107,57	2703,20
1107,99	2774,60
1108,41	2702,00
1108,83	2756,55
1109,25	2751,10
1109,67	2752,95
1110,09	2696,00
1110,51	2725,65
1110,93	2698,45
1111,35	2727,90
1111,77	2701,25
1112,19	2705,35
1112,61	2692,85
1113,03	2723,85
1113,45	2705,40
1113,87	2708,15
1114,29	2734,20
1114,71	2752,60
1115,13	2715,80
1115,55	2726,95
1115,98	2716,05
1116,40	2753,05
1116,82	2736,15
1117,24	2726,45
1117,66	2694,45
1118,08	2182,80
1118,50	2195,30
1118,91	2194,80
1119,33	2194,65
>>>>>End Processed Spectral Data<<<<<
