SpectraSuite Data File
++++++++++++++++++++++++++++++++++++
Date: Thu Feb 25 13:20:37 EET 2016
User: OO Maya
Dark Spectrum Present: No
Reference Spectrum Present: No
Number of Sampled Component Spectra: 1
Spectrometers: MAYP11278
Integration Time (usec): 400000 (MAYP11278)
Spectra Averaged: 20 (MAYP11278)
Boxcar Smoothing: 0 (MAYP11278)
Correct for Electrical Dark: No (MAYP11278)
Strobe/Lamp Enabled: No (MAYP11278)
Correct for Detector Non-linearity: No (MAYP11278)
Correct for Stray Light: No (MAYP11278)
Number of Pixels in Processed Spectrum: 2068
>>>>>Begin Processed Spectral Data<<<<<
187,82	2304,50
188,30	2221,30
188,78	2192,60
189,26	2192,65
189,73	2790,15
190,21	2857,75
190,69	2893,85
191,17	2918,80
191,64	2954,65
192,12	2923,10
192,60	2907,05
193,07	2884,70
193,55	2927,95
194,03	2916,30
194,51	2935,80
194,98	2911,75
195,46	2956,90
195,94	2908,20
196,42	2916,45
196,89	3024,70
197,37	2919,20
197,85	2887,75
198,32	2907,70
198,80	2892,30
199,28	2938,90
199,76	2952,80
200,23	2916,35
200,71	2915,60
201,19	2956,30
201,66	2948,30
202,14	2947,30
202,62	2894,05
203,09	2938,40
203,57	2890,10
204,05	2956,30
204,53	2971,45
205,00	2908,95
205,48	2901,95
205,96	2992,40
206,43	2918,65
206,91	2946,65
207,39	3028,45
207,86	2929,75
208,34	2946,05
208,82	2914,95
209,29	2968,45
209,77	2947,05
210,25	2927,80
210,72	2923,85
211,20	2953,70
211,68	2930,00
212,15	2913,90
212,63	3002,35
213,11	2953,50
213,58	2923,60
214,06	3003,15
214,53	2940,55
215,01	2984,80
215,49	2942,35
215,96	2951,20
216,44	2955,05
216,92	2956,85
217,39	2913,40
217,87	2927,70
218,35	2978,60
218,82	2887,00
219,30	2908,35
219,77	2906,80
220,25	2931,50
220,73	3026,30
221,20	2917,95
221,68	2970,15
222,15	2913,85
222,63	2966,85
223,11	2918,50
223,58	2968,20
224,06	2941,55
224,53	2922,55
225,01	2901,55
225,49	2932,65
225,96	2913,20
226,44	2935,00
226,91	2976,65
227,39	2935,25
227,87	2985,80
228,34	2965,05
228,82	2958,85
229,29	2934,60
229,77	2938,50
230,24	2927,05
230,72	2967,25
231,20	2988,80
231,67	2946,00
232,15	2936,35
232,62	2901,45
233,10	2940,80
233,57	2946,75
234,05	3083,95
234,53	2955,90
235,00	2924,55
235,48	2928,55
235,95	2908,60
236,43	2974,55
236,90	3031,95
237,38	2922,55
237,85	2955,00
238,33	2944,60
238,80	2949,15
239,28	2935,45
239,75	2895,75
240,23	2970,50
240,71	2991,05
241,18	2947,40
241,66	2931,60
242,13	2979,95
242,61	2984,45
243,08	2902,45
243,56	2912,30
244,03	2967,15
244,51	2997,80
244,98	2933,60
245,46	2982,85
245,93	4252,85
246,41	2895,05
246,88	2949,00
247,36	2938,95
247,83	2958,60
248,31	2956,05
248,78	2887,45
249,26	2954,80
249,73	2973,95
250,21	2964,55
250,68	3002,70
251,16	2944,65
251,63	3027,65
252,10	3001,00
252,58	2928,75
253,05	2998,30
253,53	2954,50
254,00	2937,45
254,48	2955,20
254,95	2960,85
255,43	2983,10
255,90	2929,25
256,38	2963,60
256,85	2972,60
257,33	2979,90
257,80	3070,15
258,27	2957,05
258,75	2943,15
259,22	2961,35
259,70	2979,05
260,17	3017,55
260,65	2955,40
261,12	2944,60
261,59	3003,15
262,07	2937,65
262,54	2977,35
263,02	2964,75
263,49	2917,65
263,97	2984,05
264,44	2994,80
264,91	2939,30
265,39	2962,50
265,86	2980,65
266,34	2988,90
266,81	2940,85
267,28	2956,55
267,76	2978,40
268,23	2989,40
268,71	2917,60
269,18	2937,50
269,65	2951,80
270,13	2993,90
270,60	3012,40
271,08	2954,95
271,55	2970,15
272,02	2913,65
272,50	2921,65
272,97	2904,65
273,44	2966,80
273,92	3112,85
274,39	2998,20
274,87	3006,15
275,34	2957,60
275,81	2966,25
276,29	2995,20
276,76	3000,40
277,23	2927,45
277,71	2960,35
278,18	2932,25
278,65	3139,65
279,13	2951,10
279,60	2951,60
280,07	3125,60
280,55	3020,05
281,02	3100,90
281,50	2950,70
281,97	3023,80
282,44	2971,65
282,91	2974,50
283,39	2993,35
283,86	2948,85
284,33	2937,50
284,81	3009,30
285,28	2972,45
285,75	2983,55
286,23	2992,00
286,70	2936,15
287,17	2994,20
287,65	3050,55
288,12	2977,50
288,59	3011,60
289,07	2920,35
289,54	3054,15
290,01	2959,45
290,48	3003,85
290,96	2971,75
291,43	3016,10
291,90	3074,25
292,38	2961,25
292,85	3033,80
293,32	2967,05
293,79	3012,80
294,27	3013,55
294,74	2987,05
295,21	3011,45
295,69	3026,00
296,16	3088,65
296,63	3072,75
297,10	3048,10
297,58	3028,35
298,05	3024,10
298,52	2990,30
298,99	3077,85
299,47	3000,50
299,94	3035,30
300,41	2991,85
300,88	3047,45
301,36	3051,10
301,83	3047,45
302,30	2985,50
302,77	3053,60
303,25	3056,35
303,72	3007,60
304,19	3014,10
304,66	2999,55
305,13	3041,90
305,61	3050,10
306,08	3047,25
306,55	3064,90
307,02	3020,25
307,49	3026,15
307,97	3047,70
308,44	3023,75
308,91	3073,45
309,38	3083,70
309,86	3071,65
310,33	3062,80
310,80	3064,85
311,27	3042,25
311,74	3099,35
312,21	3066,60
312,69	3151,15
313,16	3036,00
313,63	3050,35
314,10	3063,95
314,57	3045,05
315,05	3037,20
315,52	3114,35
315,99	3099,95
316,46	3075,90
316,93	3101,85
317,40	3093,70
317,88	3207,70
318,35	3087,05
318,82	3087,85
319,29	3046,70
319,76	3118,15
320,23	3180,10
320,70	3142,10
321,18	3104,75
321,65	3047,30
322,12	3072,40
322,59	3181,05
323,06	3095,40
323,53	3202,10
324,00	3059,20
324,48	3117,70
324,95	3101,55
325,42	3107,20
325,89	3125,00
326,36	3128,10
326,83	3175,00
327,30	3173,10
327,77	3173,90
328,24	3175,55
328,72	3151,60
329,19	3140,45
329,66	3136,60
330,13	3121,60
330,60	3186,25
331,07	3151,30
331,54	3217,05
332,01	3117,10
332,48	3249,15
332,95	3210,70
333,43	3224,65
333,90	3262,75
334,37	3226,10
334,84	3248,75
335,31	3389,85
335,78	3209,80
336,25	3255,05
336,72	3236,50
337,19	3247,55
337,66	3215,60
338,13	3230,20
338,60	3298,15
339,07	3270,35
339,54	3191,35
340,01	3200,25
340,49	3200,00
340,96	3263,70
341,43	3295,15
341,90	3229,90
342,37	3257,70
342,84	3284,90
343,31	3266,20
343,78	3236,90
344,25	3251,65
344,72	3234,95
345,19	3258,40
345,66	3281,35
346,13	3239,50
346,60	3237,10
347,07	3327,10
347,54	3235,45
348,01	3312,05
348,48	3271,25
348,95	3213,50
349,42	3274,50
349,89	3310,35
350,36	3273,40
350,83	3256,90
351,30	3296,65
351,77	3359,80
352,24	3301,85
352,71	3290,85
353,18	3298,85
353,65	3326,60
354,12	3310,95
354,59	3340,55
355,06	3322,80
355,53	3379,10
356,00	3296,95
356,47	3383,15
356,94	3294,95
357,41	3452,45
357,88	3363,95
358,35	3302,50
358,82	3318,10
359,28	3342,60
359,75	3351,35
360,22	3405,25
360,69	3437,40
361,16	3363,20
361,63	3382,30
362,10	3395,80
362,57	3386,70
363,04	3402,40
363,51	3492,95
363,98	3438,70
364,45	3384,20
364,92	3442,30
365,39	3405,50
365,86	3396,35
366,32	3461,65
366,79	3454,95
367,26	4298,90
367,73	3399,10
368,20	3447,35
368,67	3521,75
369,14	3434,20
369,61	3531,55
370,08	3514,85
370,55	3505,70
371,02	3997,50
371,48	3538,90
371,95	3510,90
372,42	3491,95
372,89	3557,00
373,36	3568,25
373,83	3530,35
374,30	3557,75
374,77	3601,05
375,23	3558,30
375,70	3678,65
376,17	3611,95
376,64	3605,50
377,11	3611,10
377,58	3680,40
378,05	3675,60
378,51	3674,90
378,98	3695,90
379,45	3705,00
379,92	3744,60
380,39	3787,45
380,86	3739,10
381,33	3817,90
381,79	3820,95
382,26	3726,70
382,73	3802,95
383,20	3800,15
383,67	3861,50
384,14	3850,70
384,60	4070,80
385,07	3870,30
385,54	3868,20
386,01	3897,60
386,48	3983,05
386,94	3892,25
387,41	3894,20
387,88	3989,50
388,35	3975,90
388,82	4019,80
389,28	3965,10
389,75	4037,70
390,22	4033,70
390,69	4057,50
391,16	4084,50
391,62	4083,65
392,09	4117,85
392,56	4103,60
393,03	4123,85
393,50	4253,15
393,96	4172,00
394,43	4227,65
394,90	4174,05
395,37	4266,05
395,83	4436,05
396,30	4221,10
396,77	4297,90
397,24	4333,95
397,70	4271,60
398,17	4345,75
398,64	4329,65
399,11	4333,20
399,57	4424,50
400,04	4384,25
400,51	4439,65
400,98	4435,75
401,44	4492,75
401,91	4504,05
402,38	4517,00
402,84	4499,15
403,31	4613,70
403,78	4573,30
404,25	4664,80
404,71	4692,05
405,18	4692,00
405,65	4642,45
406,12	4711,15
406,58	4723,95
407,05	4810,00
407,52	4751,20
407,98	4781,20
408,45	4821,70
408,92	4783,95
409,38	4893,10
409,85	4816,45
410,32	4927,80
410,78	4877,85
411,25	4968,65
411,72	4928,95
412,18	4901,50
412,65	5010,10
413,12	5005,95
413,59	5050,75
414,05	5083,85
414,52	5145,05
414,98	5091,85
415,45	5202,15
415,92	5174,95
416,38	5178,30
416,85	5292,95
417,32	5245,50
417,78	5234,50
418,25	5291,65
418,72	5300,10
419,18	5358,00
419,65	5323,05
420,12	5407,25
420,58	5360,70
421,05	5415,80
421,51	5434,80
421,98	5505,85
422,45	5491,90
422,91	5521,75
423,38	5576,95
423,85	5606,50
424,31	5625,90
424,78	5679,05
425,24	5673,10
425,71	5761,60
426,18	5701,60
426,64	5794,90
427,11	5794,70
427,57	5829,75
428,04	5795,85
428,51	5905,70
428,97	5906,00
429,44	5926,50
429,90	5966,85
430,37	6112,00
430,83	5961,80
431,30	6024,45
431,77	6134,10
432,23	6129,05
432,70	6135,75
433,16	6120,80
433,63	6197,30
434,09	6203,15
434,56	6290,00
435,03	6254,70
435,49	6343,70
435,96	6371,50
436,42	6338,35
436,89	6455,10
437,35	6463,10
437,82	6479,30
438,28	6482,85
438,75	6528,00
439,21	6731,95
439,68	6611,40
440,14	6668,90
440,61	6708,95
441,07	6669,30
441,54	6709,20
442,00	6869,55
442,47	6751,40
442,94	6828,95
443,40	6857,05
443,87	6842,90
444,33	6997,50
444,80	6972,85
445,26	7007,35
445,73	7019,20
446,19	7076,90
446,65	7074,75
447,12	7119,50
447,58	7129,35
448,05	7167,25
448,51	7253,50
448,98	7279,40
449,44	7292,80
449,91	7288,10
450,37	7337,35
450,84	7394,80
451,30	7457,70
451,77	7514,65
452,23	7504,60
452,70	7598,90
453,16	7587,00
453,62	7647,35
454,09	7668,90
454,55	7732,90
455,02	7744,25
455,48	7792,50
455,95	7881,15
456,41	7846,55
456,88	7965,90
457,34	7946,45
457,80	7981,05
458,27	7981,05
458,73	8072,80
459,20	8101,85
459,66	8242,65
460,13	8179,60
460,59	8188,80
461,05	8303,20
461,52	8327,45
461,98	8309,00
462,45	8331,10
462,91	8466,90
463,37	8452,00
463,84	8527,65
464,30	8510,60
464,76	8550,15
465,23	8596,00
465,69	8685,20
466,16	8703,35
466,62	8750,35
467,08	8807,45
467,55	8795,75
468,01	8879,10
468,48	8904,55
468,94	8950,50
469,40	8962,55
469,87	9045,30
470,33	9080,70
470,79	9100,95
471,26	9132,40
471,72	9163,20
472,18	9212,60
472,65	9263,05
473,11	9365,90
473,57	9352,80
474,04	9379,55
474,50	9447,55
474,96	9463,95
475,43	9535,40
475,89	9571,35
476,35	9633,35
476,82	9650,60
477,28	9687,10
477,74	9785,00
478,21	9782,80
478,67	9880,50
479,13	9858,05
479,59	10000,75
480,06	9981,65
480,52	10031,15
480,98	10025,00
481,45	10107,75
481,91	10150,20
482,37	10194,05
482,84	10219,10
483,30	10247,45
483,76	10319,15
484,22	10439,00
484,69	10407,75
485,15	10466,10
485,61	10471,05
486,07	10543,85
486,54	10557,25
487,00	10698,70
487,46	10658,75
487,92	10710,30
488,39	10780,90
488,85	10838,00
489,31	10910,30
489,77	10969,50
490,24	10943,25
490,70	11025,20
491,16	11039,65
491,62	11113,15
492,09	11130,25
492,55	11263,30
493,01	11269,30
493,47	11337,20
493,94	11378,45
494,40	11375,60
494,86	11443,45
495,32	11495,85
495,78	11581,15
496,25	11587,15
496,71	11673,05
497,17	11776,05
497,63	11794,95
498,09	11770,40
498,56	11847,70
499,02	11859,05
499,48	12040,20
499,94	11993,50
500,40	12059,50
500,87	12118,75
501,33	12163,35
501,79	12255,40
502,25	12268,10
502,71	12549,95
503,17	12345,20
503,64	12426,65
504,10	12477,95
504,56	12544,65
505,02	12604,15
505,48	12586,55
505,94	12665,55
506,40	12746,80
506,87	12784,15
507,33	12839,90
507,79	12882,95
508,25	12895,50
508,71	12918,60
509,17	12975,15
509,63	13042,35
510,10	13074,10
510,56	13133,40
511,02	13261,65
511,48	13322,75
511,94	13268,80
512,40	13317,25
512,86	13415,35
513,32	13494,35
513,78	13457,35
514,25	13614,10
514,71	13699,30
515,17	13629,80
515,63	13766,65
516,09	13843,75
516,55	13910,05
517,01	14025,65
517,47	13985,85
517,93	14046,95
518,39	14262,45
518,85	14185,55
519,32	14191,95
519,78	14276,50
520,24	14319,45
520,70	14456,15
521,16	14529,65
521,62	14575,45
522,08	14618,50
522,54	14614,05
523,00	14834,80
523,46	14850,35
523,92	14870,10
524,38	15040,30
524,84	15032,65
525,30	15086,20
525,76	15175,95
526,22	15185,70
526,68	15233,95
527,14	15274,25
527,60	15360,35
528,06	15478,30
528,52	15504,30
528,98	15548,50
529,44	15548,80
529,90	15690,70
530,36	15721,40
530,82	15723,90
531,28	15866,75
531,74	15874,35
532,20	15932,75
532,66	15995,50
533,12	16082,75
533,58	16109,30
534,04	16144,60
534,50	16211,15
534,96	16269,10
535,42	16362,80
535,88	16369,35
536,34	16535,15
536,80	16496,55
537,26	16613,45
537,72	16656,35
538,18	16725,60
538,64	16863,20
539,10	16886,05
539,56	17155,60
540,02	16906,05
540,48	17050,20
540,94	17091,10
541,40	17089,70
541,86	17207,20
542,32	17289,60
542,78	17282,80
543,24	17461,85
543,69	17338,95
544,15	17546,20
544,61	17537,30
545,07	17552,85
545,53	17619,85
545,99	17703,95
546,45	17744,30
546,91	17774,00
547,37	17846,35
547,83	17882,15
548,29	17941,70
548,74	17980,90
549,20	18028,00
549,66	18240,25
550,12	18201,75
550,58	18243,00
551,04	18360,45
551,50	18396,80
551,96	18516,70
552,42	18499,30
552,87	18486,70
553,33	18636,05
553,79	18622,05
554,25	18664,30
554,71	18772,75
555,17	18848,10
555,63	18992,15
556,08	19007,45
556,54	19132,25
557,00	19043,65
557,46	19179,05
557,92	19308,55
558,38	19270,45
558,83	19324,05
559,29	19391,50
559,75	19479,20
560,21	19478,75
560,67	19562,15
561,13	19629,20
561,58	19692,20
562,04	19761,95
562,50	19790,00
562,96	19900,30
563,42	20000,70
563,87	19976,55
564,33	20051,00
564,79	20080,45
565,25	20177,25
565,71	20229,90
566,16	20330,65
566,62	20343,25
567,08	20390,85
567,54	20444,85
568,00	20586,90
568,45	20571,35
568,91	20638,55
569,37	20741,15
569,83	20798,60
570,28	20794,70
570,74	20898,20
571,20	20980,00
571,66	20990,60
572,11	21084,80
572,57	21103,55
573,03	21168,70
573,49	21217,85
573,94	21304,25
574,40	21436,30
574,86	21413,30
575,32	21436,85
575,77	21516,00
576,23	21534,65
576,69	21686,15
577,15	21645,85
577,60	21762,80
578,06	21766,35
578,52	21948,00
578,97	21964,30
579,43	21966,45
579,89	22116,95
580,34	22112,30
580,80	22200,30
581,26	22254,45
581,72	22315,50
582,17	22343,35
582,63	22373,85
583,09	22462,60
583,54	22562,00
584,00	22593,40
584,46	22668,55
584,91	22678,80
585,37	22901,60
585,83	22815,90
586,28	22820,90
586,74	22929,25
587,20	22989,30
587,65	23089,35
588,11	23031,25
588,57	23142,50
589,02	23224,85
589,48	23251,05
589,94	23316,40
590,39	23373,45
590,85	23426,80
591,30	23459,80
591,76	23602,70
592,22	23535,80
592,67	23658,90
593,13	23702,65
593,59	23745,30
594,04	23779,25
594,50	23853,75
594,95	23937,90
595,41	23908,40
595,87	23976,20
596,32	24112,05
596,78	24150,55
597,23	24173,60
597,69	24197,50
598,15	24179,30
598,60	24360,70
599,06	24459,30
599,51	24458,00
599,97	24531,20
600,43	24627,25
600,88	24677,00
601,34	24722,60
601,79	24704,75
602,25	24967,10
602,70	24850,50
603,16	24913,70
603,61	24902,65
604,07	24965,95
604,53	25079,95
604,98	25069,50
605,44	25173,10
605,89	25168,40
606,35	25154,55
606,80	25254,45
607,26	25255,10
607,71	25358,55
608,17	25420,05
608,62	25429,20
609,08	25587,65
609,53	25606,75
609,99	25595,50
610,44	25683,40
610,90	25779,75
611,35	25812,60
611,81	26020,65
612,26	26022,20
612,72	26052,35
613,17	26274,15
613,63	26173,65
614,08	26245,50
614,54	26307,60
614,99	26393,20
615,45	26514,40
615,90	26576,10
616,36	26581,95
616,81	26708,25
617,27	26793,05
617,72	26865,00
618,18	26896,35
618,63	26922,05
619,09	27006,05
619,54	27149,90
619,99	27177,85
620,45	27319,80
620,90	27409,45
621,36	27423,40
621,81	27549,10
622,27	27595,10
622,72	27701,10
623,18	27718,70
623,63	27757,90
624,08	27873,60
624,54	27871,90
624,99	27991,85
625,45	28075,75
625,90	28082,65
626,35	28155,15
626,81	28226,15
627,26	28276,45
627,72	28417,45
628,17	28441,80
628,62	28446,20
629,08	28508,40
629,53	28582,80
629,99	28591,35
630,44	28718,80
630,89	28750,40
631,35	28804,75
631,80	28820,95
632,26	28894,55
632,71	28880,40
633,16	28937,60
633,62	29004,20
634,07	29031,85
634,52	29038,95
634,98	29066,10
635,43	29156,95
635,88	29149,15
636,34	29267,25
636,79	29288,65
637,24	29332,20
637,70	29423,10
638,15	29454,90
638,60	29427,65
639,06	29452,95
639,51	29508,05
639,96	29544,20
640,42	29653,10
640,87	29765,15
641,32	29715,45
641,78	29735,50
642,23	29788,90
642,68	29785,00
643,14	29910,80
643,59	29962,60
644,04	30008,15
644,49	30013,20
644,95	30103,90
645,40	30057,25
645,85	30171,75
646,31	30199,75
646,76	30269,60
647,21	30377,15
647,66	30366,10
648,12	30396,40
648,57	30363,90
649,02	30515,20
649,47	30528,60
649,93	30754,15
650,38	30615,35
650,83	30620,65
651,28	30641,20
651,74	30714,20
652,19	30686,60
652,64	30775,35
653,09	30786,05
653,55	30901,15
654,00	30958,85
654,45	30965,35
654,90	30996,70
655,35	30977,30
655,81	31057,15
656,26	31047,50
656,71	31122,10
657,16	31248,20
657,62	31262,15
658,07	31285,55
658,52	31327,75
658,97	31304,95
659,42	31482,35
659,88	31362,90
660,33	31460,05
660,78	31491,35
661,23	31525,35
661,68	31602,90
662,13	31571,95
662,59	31545,90
663,04	31596,70
663,49	31638,15
663,94	31689,80
664,39	31772,90
664,84	31803,35
665,30	31841,30
665,75	31780,80
666,20	31802,20
666,65	31805,95
667,10	31954,20
667,55	31971,40
668,00	32015,95
668,46	32185,40
668,91	32142,95
669,36	32226,95
669,81	32118,20
670,26	32130,75
670,71	32259,80
671,16	32274,10
671,61	32408,00
672,06	32521,45
672,52	32463,15
672,97	32495,00
673,42	32571,10
673,87	32585,80
674,32	32445,50
674,77	32561,90
675,22	32509,95
675,67	32621,65
676,12	32740,55
676,57	32748,85
677,02	32724,65
677,47	32736,85
677,93	32832,65
678,38	32716,55
678,83	32764,20
679,28	32904,20
679,73	32959,20
680,18	33049,70
680,63	33076,05
681,08	32967,50
681,53	32897,40
681,98	32938,35
682,43	32987,45
682,88	33096,05
683,33	33240,60
683,78	33265,15
684,23	33334,35
684,68	33248,05
685,13	33241,60
685,58	33167,20
686,03	33230,90
686,48	33253,70
686,93	33358,05
687,38	33402,50
687,83	33437,25
688,28	33463,50
688,73	33541,95
689,18	33484,30
689,63	33424,55
690,08	33450,60
690,53	33401,90
690,98	33440,65
691,43	33468,10
691,88	33452,95
692,33	33486,35
692,78	33552,85
693,23	33685,05
693,68	33714,45
694,13	33833,80
694,58	33880,30
695,03	34153,15
695,48	34013,35
695,93	34058,65
696,38	34137,50
696,83	34012,25
697,28	33977,95
697,72	33922,60
698,17	33928,30
698,62	34036,35
699,07	34076,30
699,52	34129,60
699,97	34193,95
700,42	34312,00
700,87	34320,55
701,32	34435,75
701,77	34114,65
702,22	34194,25
702,67	34104,60
703,11	34161,90
703,56	34324,15
704,01	34448,40
704,46	34487,95
704,91	34540,95
705,36	34529,65
705,81	34385,05
706,26	34302,70
706,70	34327,90
707,15	34372,35
707,60	34449,00
708,05	34602,25
708,50	34681,20
708,95	34674,70
709,40	34642,80
709,84	34487,65
710,29	34415,05
710,74	34395,95
711,19	34528,10
711,64	34641,20
712,09	34758,05
712,53	34749,65
712,98	34841,55
713,43	34690,10
713,88	34684,40
714,33	34657,30
714,78	34575,50
715,22	34534,40
715,67	34611,40
716,12	34667,20
716,57	34740,20
717,02	34718,65
717,46	34626,65
717,91	34639,95
718,36	34549,90
718,81	34373,40
719,26	34323,95
719,70	34359,80
720,15	34398,55
720,60	34439,70
721,05	34476,15
721,49	34416,05
721,94	34417,40
722,39	34285,55
722,84	34126,30
723,28	33999,90
723,73	34045,45
724,18	34037,85
724,63	34191,25
725,07	34186,45
725,52	34271,30
725,97	34323,15
726,42	34352,65
726,86	34385,95
727,31	34266,45
727,76	34357,20
728,21	34303,15
728,65	34318,00
729,10	34445,65
729,55	34409,50
729,99	34583,65
730,44	34701,75
730,89	34878,30
731,33	34959,85
731,78	34922,30
732,23	34919,05
732,68	34899,15
733,12	34972,05
733,57	35030,00
734,02	35174,70
734,46	35422,55
734,91	35523,55
735,36	35588,95
735,80	35860,10
736,25	35804,30
736,70	35797,00
737,14	35784,40
737,59	35724,70
738,04	35698,65
738,48	35764,55
738,93	35901,45
739,37	35992,05
739,82	36202,65
740,27	36217,10
740,71	36205,90
741,16	36225,10
741,61	36174,35
742,05	36075,95
742,50	35997,20
742,94	35924,15
743,39	35949,25
743,84	36009,00
744,28	36105,70
744,73	36159,95
745,18	36281,05
745,62	36350,05
746,07	36313,20
746,51	36161,85
746,96	35981,70
747,40	35857,30
747,85	35847,80
748,30	35880,70
748,74	35897,05
749,19	36006,15
749,63	36190,00
750,08	36137,60
750,52	36169,80
750,97	36145,55
751,42	36077,10
751,86	35950,10
752,31	35861,75
752,75	35813,45
753,20	35705,55
753,64	35770,40
754,09	35818,60
754,53	35948,05
754,98	35974,35
755,42	36010,50
755,87	35993,55
756,31	35885,95
756,76	35609,05
757,20	35625,60
757,65	35478,05
758,09	35477,00
758,54	35528,55
758,98	35627,40
759,43	35652,45
759,87	35767,40
760,32	35743,05
760,76	35567,90
761,21	35466,60
761,65	35368,45
762,10	35172,95
762,54	35095,15
762,99	35255,55
763,43	35526,60
763,88	35608,55
764,32	35824,70
764,77	35979,30
765,21	36017,80
765,66	35856,85
766,10	35747,55
766,54	35521,00
766,99	35340,80
767,43	35370,40
767,88	35436,30
768,32	35570,40
768,77	35802,35
769,21	36139,00
769,66	36268,60
770,10	36296,30
770,54	36368,35
770,99	36325,35
771,43	36301,10
771,88	36124,65
772,32	35994,85
772,76	35830,45
773,21	35816,30
773,65	35720,60
774,10	35713,05
774,54	35891,00
774,98	36022,00
775,43	36243,60
775,87	36382,85
776,31	36441,60
776,76	36455,90
777,20	36368,85
777,65	36185,50
778,09	35949,05
778,53	35795,70
778,98	35712,85
779,42	35771,40
779,86	35843,20
780,31	35898,55
780,75	36169,75
781,19	36174,80
781,64	36236,50
782,08	36276,30
782,52	36086,30
782,97	35943,70
783,41	35771,50
783,85	35516,95
784,30	35297,00
784,74	35223,70
785,18	35213,80
785,63	35326,40
786,07	35473,65
786,51	35748,70
786,95	35922,50
787,40	35860,85
787,84	35747,20
788,28	35587,15
788,73	35522,85
789,17	35242,55
789,61	35033,10
790,05	34882,80
790,50	34742,80
790,94	34829,70
791,38	35095,25
791,82	35244,20
792,27	35406,65
792,71	35536,50
793,15	35794,05
793,59	35486,55
794,04	35204,85
794,48	34838,30
794,92	34467,10
795,36	34314,30
795,81	34233,10
796,25	34290,00
796,69	34467,50
797,13	34694,05
797,57	34852,00
798,02	35080,10
798,46	35157,40
798,90	35119,70
799,34	34882,20
799,79	34621,95
800,23	34208,10
800,67	33941,80
801,11	33827,25
801,55	33813,40
801,99	33879,35
802,44	34165,60
802,88	34488,45
803,32	34698,85
803,76	34849,35
804,20	34959,35
804,64	34800,00
805,09	34629,25
805,53	34259,90
805,97	33792,30
806,41	33445,80
806,85	33217,50
807,29	33212,95
807,74	33346,80
808,18	33487,80
808,62	33729,35
809,06	34031,05
809,50	34174,45
809,94	34381,65
810,38	34489,90
810,82	34448,00
811,27	34372,75
811,71	33901,75
812,15	33575,20
812,59	33307,60
813,03	33162,50
813,47	32873,60
813,91	32749,45
814,35	32885,25
814,79	33148,60
815,23	33518,55
815,67	33774,90
816,12	33905,70
816,56	34047,95
817,00	34081,90
817,44	33968,85
817,88	33779,10
818,32	33379,15
818,76	33031,00
819,20	32830,80
819,64	32518,40
820,08	32480,70
820,52	32482,20
820,96	32731,05
821,40	32916,65
821,84	33384,50
822,28	33497,95
822,72	33739,30
823,16	33841,90
823,60	33750,30
824,04	33565,60
824,48	33304,55
824,92	33076,15
825,36	32786,85
825,80	32456,95
826,24	32352,85
826,68	32361,15
827,12	32555,50
827,56	32770,25
828,00	33136,45
828,44	33275,50
828,88	33474,15
829,32	33642,25
829,76	33576,35
830,20	33537,35
830,64	33227,10
831,08	32845,65
831,52	32357,75
831,96	32104,65
832,40	31987,55
832,84	32151,10
833,28	32478,65
833,72	32851,35
834,16	33193,60
834,60	33561,80
835,04	33758,70
835,48	33724,70
835,91	33489,80
836,35	33110,20
836,79	32659,90
837,23	32359,55
837,67	32013,55
838,11	31873,65
838,55	31954,85
838,99	32045,60
839,43	32272,45
839,87	32679,50
840,30	33094,45
840,74	33586,05
841,18	33827,20
841,62	33866,10
842,06	33761,00
842,50	33523,80
842,94	33074,15
843,38	32523,65
843,81	32104,15
844,25	31691,45
844,69	31492,30
845,13	31499,55
845,57	31697,85
846,01	32046,65
846,45	32455,10
846,88	32904,90
847,32	33384,20
847,76	33673,40
848,20	33927,65
848,64	33880,40
849,08	33953,70
849,51	33817,25
849,95	33505,70
850,39	33042,50
850,83	32711,95
851,27	32341,25
851,70	32019,80
852,14	31779,60
852,58	31723,70
853,02	31888,65
853,46	32091,20
853,89	32575,20
854,33	33350,45
854,77	33724,55
855,21	34013,35
855,65	34089,70
856,08	34073,35
856,52	33733,55
856,96	33273,20
857,40	32573,95
857,83	31972,75
858,27	31576,50
858,71	31277,35
859,15	31426,60
859,58	31808,60
860,02	32301,40
860,46	32697,10
860,89	33339,30
861,33	33678,00
861,77	33855,90
862,21	33995,80
862,64	33947,65
863,08	33643,50
863,52	33334,20
863,95	32762,25
864,39	32393,05
864,83	32002,00
865,27	31751,40
865,70	31803,30
866,14	31851,35
866,58	32047,35
867,01	32418,85
867,45	32948,20
867,89	33481,80
868,32	33810,20
868,76	34150,00
869,20	34059,25
869,63	33800,90
870,07	33117,05
870,51	32238,65
870,94	31572,40
871,38	31049,60
871,82	30692,55
872,25	30656,60
872,69	30850,45
873,13	31214,90
873,56	31834,05
874,00	32421,35
874,43	32797,40
874,87	33261,70
875,31	33586,85
875,74	33525,00
876,18	33642,45
876,61	33356,70
877,05	32842,80
877,49	32374,35
877,92	31833,95
878,36	31306,80
878,79	30835,50
879,23	30640,35
879,67	30450,40
880,10	30474,40
880,54	30795,35
880,97	31399,60
881,41	32199,05
881,84	32780,60
882,28	33423,40
882,72	33897,25
883,15	34065,30
883,59	33984,60
884,02	33687,60
884,46	33253,35
884,89	32700,75
885,33	32128,75
885,76	31429,00
886,20	30904,40
886,63	30725,50
887,07	30440,00
887,50	30558,90
887,94	30830,15
888,37	31248,90
888,81	31852,30
889,24	32117,65
889,68	32627,85
890,11	33109,40
890,55	33576,90
890,98	33978,45
891,42	34214,70
891,85	34002,15
892,29	33582,75
892,72	32923,60
893,16	32325,75
893,59	31757,05
894,03	31256,90
894,46	30968,55
894,90	30725,35
895,33	30666,65
895,77	31022,80
896,20	31622,40
896,63	32193,35
897,07	32705,50
897,50	33488,55
897,94	34080,25
898,37	34555,45
898,81	34546,85
899,24	34397,40
899,68	34129,10
900,11	33652,30
900,54	32922,60
900,98	32127,65
901,41	31449,30
901,85	30936,20
902,28	30567,75
902,71	30380,05
903,15	30617,25
903,58	30775,65
904,02	30975,90
904,45	31168,70
904,88	31548,85
905,32	31984,50
905,75	32438,45
906,18	32700,55
906,62	33208,00
907,05	33510,30
907,48	33472,15
907,92	33331,30
908,35	32970,40
908,79	32526,90
909,22	31861,15
909,65	31169,85
910,09	30667,40
910,52	30312,30
910,95	30235,60
911,38	30327,40
911,82	30721,70
912,25	31204,90
912,68	31912,95
913,12	32565,20
913,55	33281,55
913,98	33930,50
914,42	34185,95
914,85	34119,35
915,28	33548,85
915,72	32697,95
916,15	31633,15
916,58	30952,60
917,01	30402,30
917,45	30222,65
917,88	30143,10
918,31	30151,40
918,74	30207,75
919,18	30682,85
919,61	30842,35
920,04	31250,95
920,47	31699,20
920,91	32147,90
921,34	32672,80
921,77	32939,50
922,20	33215,95
922,64	33241,75
923,07	33158,40
923,50	32857,60
923,93	32307,50
924,37	31768,50
924,80	31034,05
925,23	30298,20
925,66	29568,95
926,09	28922,70
926,53	28766,35
926,96	28637,00
927,39	28886,95
927,82	29099,05
928,25	29501,30
928,69	30000,55
929,12	30554,50
929,55	30988,55
929,98	31175,55
930,41	31112,50
930,84	30941,55
931,28	30317,50
931,71	29765,15
932,14	29070,70
932,57	28225,45
933,00	27204,95
933,43	26419,15
933,86	25758,70
934,30	25269,15
934,73	24899,20
935,16	24575,25
935,59	24474,20
936,02	24351,45
936,45	24489,70
936,88	24409,65
937,31	24383,95
937,75	24133,35
938,18	23814,95
938,61	23257,00
939,04	22542,50
939,47	21841,95
939,90	21037,70
940,33	20328,80
940,76	19466,30
941,19	18951,25
941,62	18465,30
942,05	18182,60
942,48	18153,40
942,91	18108,55
943,35	18144,35
943,78	18359,20
944,21	18626,60
944,64	18881,85
945,07	19116,20
945,50	19510,05
945,93	19889,35
946,36	20293,80
946,79	20531,35
947,22	20734,40
947,65	20890,45
948,08	20890,30
948,51	20671,55
948,94	20537,10
949,37	20361,20
949,80	20113,90
950,23	19841,20
950,66	19728,75
951,09	19834,40
951,52	20060,15
951,95	20683,05
952,38	21193,40
952,81	21922,95
953,24	22556,15
953,67	23246,25
954,10	23809,25
954,53	24200,95
954,96	24426,40
955,39	24495,35
955,82	24361,55
956,25	24099,95
956,68	23853,75
957,11	23309,25
957,53	22974,45
957,96	22743,25
958,39	22530,00
958,82	22396,90
959,25	22308,10
959,68	22457,50
960,11	22742,30
960,54	23084,20
960,97	23517,65
961,40	24023,20
961,83	24563,10
962,26	24983,75
962,68	25600,15
963,11	25931,25
963,54	26198,30
963,97	26215,10
964,40	26006,75
964,83	25760,40
965,26	25207,95
965,69	24536,00
966,11	24074,55
966,54	23472,45
966,97	23248,90
967,40	23108,35
967,83	23173,50
968,26	23018,35
968,69	23012,15
969,11	23054,25
969,54	23110,20
969,97	23282,60
970,40	23586,50
970,83	23808,15
971,26	24247,60
971,68	24644,70
972,11	25128,35
972,54	25393,40
972,97	25530,95
973,40	25403,90
973,82	25125,65
974,25	24688,30
974,68	24140,60
975,11	23617,30
975,54	23129,30
975,96	22746,25
976,39	22417,90
976,82	22285,20
977,25	22182,15
977,67	22250,40
978,10	22406,40
978,53	22728,80
978,96	23030,95
979,38	23311,00
979,81	23543,05
980,24	23883,90
980,67	24231,15
981,09	24314,95
981,52	24407,60
981,95	24458,15
982,38	24497,05
982,80	24407,70
983,23	24397,90
983,66	24266,65
984,08	23902,00
984,51	23488,90
984,94	23053,70
985,37	22669,60
985,79	22124,65
986,22	21658,35
986,65	21493,60
987,07	21339,60
987,50	21239,55
987,93	21317,60
988,35	21420,20
988,78	21619,60
989,21	21796,25
989,63	22178,90
990,06	22491,80
990,49	22786,70
990,91	23103,35
991,34	23214,15
991,77	23189,00
992,19	23106,45
992,62	22927,95
993,05	22696,90
993,47	22399,25
993,90	22032,85
994,32	21613,00
994,75	21239,25
995,18	20862,60
995,60	20675,25
996,03	20322,95
996,45	20251,75
996,88	20142,15
997,31	20109,15
997,73	20153,35
998,16	20260,35
998,58	20427,25
999,01	20564,80
999,44	20918,85
999,86	21194,40
1000,29	21275,95
1000,71	21463,95
1001,14	21500,80
1001,56	21369,60
1001,99	21135,95
1002,41	20806,55
1002,84	20388,60
1003,27	19960,05
1003,69	19532,90
1004,12	19158,60
1004,54	18864,05
1004,97	18538,45
1005,39	18311,55
1005,82	18188,30
1006,24	18119,05
1006,67	18033,75
1007,09	18043,15
1007,52	18049,20
1007,94	18060,25
1008,37	18266,45
1008,79	18250,80
1009,22	18268,75
1009,64	18300,40
1010,07	18346,80
1010,49	18433,45
1010,92	18430,10
1011,34	18461,60
1011,77	18362,70
1012,19	18230,25
1012,62	18007,35
1013,04	17611,75
1013,46	17320,05
1013,89	16843,60
1014,31	16656,30
1014,74	16357,25
1015,16	16236,75
1015,59	16132,85
1016,01	16199,25
1016,44	16257,95
1016,86	17142,75
1017,28	16531,35
1017,71	16570,45
1018,13	16921,00
1018,56	16990,50
1018,98	17087,20
1019,40	17158,85
1019,83	17294,95
1020,25	17410,75
1020,68	17504,45
1021,10	17649,80
1021,52	17706,15
1021,95	17925,45
1022,37	17742,00
1022,79	17554,70
1023,22	17356,80
1023,64	17157,15
1024,07	16907,40
1024,49	16691,85
1024,91	16507,25
1025,34	16323,85
1025,76	16337,80
1026,18	16142,60
1026,61	16067,60
1027,03	16068,90
1027,45	16095,85
1027,88	16197,20
1028,30	16387,05
1028,72	16414,95
1029,15	16530,10
1029,57	16587,95
1029,99	16669,00
1030,41	16535,50
1030,84	16530,35
1031,26	16446,65
1031,68	16233,60
1032,11	16102,75
1032,53	15886,25
1032,95	15610,25
1033,37	15380,90
1033,80	15146,10
1034,22	14839,25
1034,64	14710,70
1035,06	14390,10
1035,49	14200,15
1035,91	14070,25
1036,33	13903,20
1036,75	13836,50
1037,18	13785,60
1037,60	13732,25
1038,02	13760,70
1038,44	13781,75
1038,87	13742,05
1039,29	13785,00
1039,71	13813,60
1040,13	13831,70
1040,55	13873,10
1040,98	13805,50
1041,40	13656,50
1041,82	13539,40
1042,24	13357,45
1042,66	13215,30
1043,09	13004,40
1043,51	12776,50
1043,93	12573,40
1044,35	12401,60
1044,77	12228,80
1045,20	12055,35
1045,62	11844,75
1046,04	11734,35
1046,46	11618,70
1046,88	11459,15
1047,30	11439,80
1047,72	11374,15
1048,15	11310,70
1048,57	11212,10
1048,99	11200,90
1049,41	11184,00
1049,83	11161,75
1050,25	11162,50
1050,67	11099,95
1051,09	11044,15
1051,52	11017,40
1051,94	10913,30
1052,36	10941,25
1052,78	10793,25
1053,20	10786,30
1053,62	10615,95
1054,04	10571,95
1054,46	10430,05
1054,88	10402,25
1055,30	10233,75
1055,72	10155,80
1056,14	9972,95
1056,57	9988,45
1056,99	9663,65
1057,41	9593,05
1057,83	9485,20
1058,25	9335,65
1058,67	9236,95
1059,09	9141,55
1059,51	9095,35
1059,93	8999,10
1060,35	8906,85
1060,77	8866,55
1061,19	8869,55
1061,61	8787,00
1062,03	8726,35
1062,45	8695,75
1062,87	8711,30
1063,29	8679,30
1063,71	8605,95
1064,13	8556,60
1064,55	8523,75
1064,97	8516,70
1065,39	8461,35
1065,81	8381,30
1066,23	8313,05
1066,65	8201,85
1067,07	8232,60
1067,49	8068,50
1067,91	7948,85
1068,33	7823,75
1068,75	7835,90
1069,17	7762,40
1069,59	7683,80
1070,00	7560,75
1070,42	7540,40
1070,84	7449,70
1071,26	7381,80
1071,68	7338,05
1072,10	7363,20
1072,52	7272,80
1072,94	7247,40
1073,36	7225,75
1073,78	7219,95
1074,20	7168,65
1074,62	7157,60
1075,03	7154,50
1075,45	7151,85
1075,87	7168,45
1076,29	7093,15
1076,71	7086,40
1077,13	7092,35
1077,55	6896,00
1077,97	6900,45
1078,38	6818,10
1078,80	6750,15
1079,22	6675,75
1079,64	6605,30
1080,06	6513,70
1080,48	6490,10
1080,89	6417,60
1081,31	6370,15
1081,73	6339,65
1082,15	6289,65
1082,57	6290,65
1082,99	6192,65
1083,40	6172,15
1083,82	6215,55
1084,24	6103,85
1084,66	6101,55
1085,08	6122,00
1085,49	6037,25
1085,91	6087,10
1086,33	7383,45
1086,75	6045,35
1087,17	6012,25
1087,58	5972,95
1088,00	5943,60
1088,42	5972,30
1088,84	5878,35
1089,25	5801,25
1089,67	5752,35
1090,09	5692,15
1090,51	5626,80
1090,92	5587,80
1091,34	5523,70
1091,76	5486,35
1092,18	5433,40
1092,59	5388,65
1093,01	5346,45
1093,43	5316,40
1093,84	5267,80
1094,26	5257,05
1094,68	5232,50
1095,10	5170,10
1095,51	5189,50
1095,93	5143,35
1096,35	5162,25
1096,76	5148,15
1097,18	5139,90
1097,60	5085,15
1098,01	5047,25
1098,43	5002,15
1098,85	4984,70
1099,26	4925,30
1099,68	4898,00
1100,10	4797,60
1100,51	4753,25
1100,93	4717,80
1101,35	4674,35
1101,76	4650,90
1102,18	4931,00
1102,60	4651,05
1103,01	4507,40
1103,43	4571,60
1103,84	4559,35
1104,26	4519,45
1104,68	4523,80
1105,09	4457,65
1105,51	4460,50
1105,92	4495,05
1106,34	4349,70
1106,76	4372,95
1107,17	4315,10
1107,59	4267,70
1108,00	4162,05
1108,42	4171,60
1108,83	4123,25
1109,25	4116,70
1109,67	4089,35
1110,08	4092,65
1110,50	4081,30
1110,91	4088,15
1111,33	4022,20
1111,74	3943,50
1112,16	3921,65
1112,57	3890,20
1112,99	3809,00
1113,41	3814,85
1113,82	3747,25
1114,24	3647,35
1114,65	3535,75
1115,07	3417,00
1115,48	3359,70
1115,90	2169,75
1116,31	2196,95
1116,73	2194,85
1117,14	2193,55
>>>>>End Processed Spectral Data<<<<<
