SpectraSuite Data File
++++++++++++++++++++++++++++++++++++
Date: Thu Feb 11 08:42:22 EET 2016
User: OO Maya
Dark Spectrum Present: No
Reference Spectrum Present: No
Number of Sampled Component Spectra: 1
Spectrometers: MAYP11278
Integration Time (usec): 100000 (MAYP11278)
Spectra Averaged: 10 (MAYP11278)
Boxcar Smoothing: 0 (MAYP11278)
Correct for Electrical Dark: No (MAYP11278)
Strobe/Lamp Enabled: No (MAYP11278)
Correct for Detector Non-linearity: No (MAYP11278)
Correct for Stray Light: No (MAYP11278)
Number of Pixels in Processed Spectrum: 2068
>>>>>Begin Processed Spectral Data<<<<<
188,14	2292,90
188,62	2213,50
189,09	2183,90
189,57	2185,60
190,05	2296,30
190,53	2306,00
191,01	2307,00
191,49	2310,90
191,97	2311,60
192,44	2304,80
192,92	2304,50
193,40	2300,50
193,88	2307,80
194,36	2301,00
194,84	2307,80
195,31	2303,60
195,79	2310,20
196,27	2303,30
196,75	2306,70
197,23	2326,60
197,70	2304,80
198,18	2296,20
198,66	2300,70
199,14	2300,40
199,62	2306,40
200,09	2310,70
200,57	2304,40
201,05	2303,60
201,53	2308,10
202,01	2311,70
202,48	2312,50
202,96	2298,50
203,44	2311,40
203,92	2300,40
204,40	2311,60
204,87	2318,00
205,35	2299,50
205,83	2306,90
206,31	2316,30
206,78	2304,30
207,26	2307,50
207,74	2325,70
208,22	2307,80
208,69	2314,00
209,17	2308,20
209,65	2312,30
210,13	2307,70
210,60	2309,80
211,08	2302,40
211,56	2315,20
212,04	2310,50
212,51	2303,70
212,99	2325,80
213,47	2310,90
213,95	2304,50
214,42	2326,90
214,90	2311,80
215,38	2319,40
215,85	2313,00
216,33	2314,60
216,81	2316,70
217,29	2312,30
217,76	2303,70
218,24	2308,50
218,72	2318,20
219,19	2300,60
219,67	2305,50
220,15	2308,60
220,62	2308,40
221,10	2324,00
221,58	2305,40
222,05	2312,00
222,53	2305,70
223,01	2313,30
223,49	2308,90
223,96	2321,10
224,44	2310,60
224,92	2309,00
225,39	2299,30
225,87	2309,20
226,35	2301,20
226,82	2305,20
227,30	2315,20
227,77	2305,60
228,25	2318,90
228,73	2318,50
229,20	2316,50
229,68	2310,50
230,16	2312,40
230,63	2309,10
231,11	2316,20
231,59	2321,80
232,06	2313,30
232,54	2312,60
233,02	2301,00
233,49	2310,60
233,97	2316,00
234,44	2334,50
234,92	2317,00
235,40	2304,00
235,87	2312,20
236,35	2302,70
236,82	2315,20
237,30	2324,80
237,78	2307,00
238,25	2310,60
238,73	2308,00
239,20	2309,50
239,68	2311,90
240,16	2300,70
240,63	2315,60
241,11	2316,20
241,58	2311,10
242,06	2312,50
242,53	2315,60
243,01	2317,90
243,49	2301,40
243,96	2305,50
244,44	2314,50
244,91	2323,00
245,39	2304,00
245,86	2318,50
246,34	2597,80
246,82	2298,00
247,29	2312,80
247,77	2310,40
248,24	2310,70
248,72	2313,30
249,19	2293,40
249,67	2312,70
250,14	2316,60
250,62	2313,80
251,09	2323,80
251,57	2308,50
252,04	2325,10
252,52	2322,30
253,00	2306,30
253,47	2318,70
253,95	2313,30
254,42	2310,20
254,90	2305,70
255,37	2315,90
255,85	2320,10
256,32	2305,40
256,80	2313,50
257,27	2310,90
257,75	2316,50
258,22	2335,40
258,70	2312,70
259,17	2306,50
259,65	2314,60
260,12	2318,80
260,59	2327,70
261,07	2305,60
261,54	2309,30
262,02	2321,60
262,49	2308,40
262,97	2313,00
263,44	2315,10
263,92	2304,90
264,39	2317,80
264,87	2318,30
265,34	2309,20
265,82	2311,60
266,29	2313,90
266,76	2317,50
267,24	2305,80
267,71	2310,80
268,19	2314,80
268,66	2311,40
269,14	2299,10
269,61	2307,30
270,09	2306,80
270,56	2321,90
271,03	2323,10
271,51	2307,70
271,98	2313,70
272,46	2304,00
272,93	2303,90
273,40	2293,50
273,88	2314,40
274,35	2341,30
274,83	2317,30
275,30	2320,90
275,78	2309,30
276,25	2311,80
276,72	2314,70
277,20	2321,70
277,67	2303,20
278,14	2309,80
278,62	2305,30
279,09	2345,70
279,57	2309,00
280,04	2306,40
280,51	2345,10
280,99	2323,50
281,46	2337,00
281,93	2304,70
282,41	2321,80
282,88	2307,40
283,36	2310,60
283,83	2310,80
284,30	2308,10
284,78	2301,50
285,25	2315,60
285,72	2307,00
286,20	2312,70
286,67	2317,80
287,14	2305,20
287,62	2313,70
288,09	2321,70
288,56	2307,20
289,04	2315,30
289,51	2297,30
289,98	2320,70
290,46	2305,70
290,93	2315,70
291,40	2309,10
291,88	2314,50
292,35	2329,00
292,82	2306,30
293,29	2320,90
293,77	2308,60
294,24	2315,80
294,71	2312,50
295,19	2306,70
295,66	2317,10
296,13	2310,80
296,61	2324,20
297,08	2322,10
297,55	2319,00
298,02	2316,80
298,50	2317,10
298,97	2308,50
299,44	2321,70
299,91	2307,40
300,39	2316,50
300,86	2308,80
301,33	2321,70
301,81	2318,80
302,28	2318,80
302,75	2299,10
303,22	2316,20
303,70	2317,60
304,17	2306,10
304,64	2306,30
305,11	2303,30
305,58	2310,00
306,06	2316,20
306,53	2309,00
307,00	2319,90
307,47	2307,50
307,95	2311,00
308,42	2315,10
308,89	2309,60
309,36	2319,40
309,83	2315,70
310,31	2313,90
310,78	2316,90
311,25	2313,00
311,72	2306,80
312,20	2319,10
312,67	2314,00
313,14	2326,40
313,61	2311,00
314,08	2309,80
314,56	2316,10
315,03	2305,30
315,50	2305,40
315,97	2322,20
316,44	2317,30
316,91	2313,70
317,39	2317,20
317,86	2312,10
318,33	2335,40
318,80	2312,70
319,27	2311,20
319,74	2306,60
320,22	2316,40
320,69	2325,30
321,16	2320,60
321,63	2311,00
322,10	2296,90
322,57	2305,20
323,04	2324,30
323,52	2310,80
323,99	2331,80
324,46	2305,80
324,93	2313,40
325,40	2307,70
325,87	2308,30
326,34	2309,30
326,82	2311,00
327,29	2315,90
327,76	2313,60
328,23	2314,30
328,70	2310,90
329,17	2307,90
329,64	2308,80
330,11	2308,70
330,58	2307,90
331,05	2319,50
331,53	2317,30
332,00	2334,20
332,47	2308,90
332,94	2327,90
333,41	2320,90
333,88	2316,20
334,35	2319,90
334,82	2314,90
335,29	2316,00
335,76	2343,80
336,23	2302,50
336,70	2311,00
337,18	2307,10
337,65	2313,20
338,12	2309,20
338,59	2311,00
339,06	2321,70
339,53	2322,80
340,00	2303,00
340,47	2312,00
340,94	2303,60
341,41	2316,20
341,88	2323,10
342,35	2307,10
342,82	2313,80
343,29	2317,50
343,76	2309,10
344,23	2306,00
344,70	2309,50
345,17	2307,20
345,64	2312,00
346,11	2317,50
346,58	2307,10
347,05	2307,00
347,52	2327,00
347,99	2307,90
348,46	2321,40
348,93	2318,10
349,40	2299,60
349,87	2315,60
350,34	2319,80
350,81	2312,80
351,28	2307,50
351,75	2318,40
352,22	2323,80
352,69	2319,00
353,16	2310,00
353,63	2312,60
354,10	2317,90
354,57	2316,10
355,04	2316,40
355,51	2314,40
355,98	2320,90
356,45	2306,00
356,92	2324,60
357,39	2302,40
357,86	2336,50
358,33	2316,80
358,80	2304,70
359,27	2306,60
359,74	2309,00
360,21	2309,00
360,68	2319,90
361,14	2325,20
361,61	2310,10
362,08	2311,10
362,55	2310,00
363,02	2312,90
363,49	2313,10
363,96	2333,70
364,43	2315,90
364,90	2306,20
365,37	2317,70
365,84	2307,80
366,31	2304,30
366,77	2311,10
367,24	2310,10
367,71	2463,20
368,18	2297,80
368,65	2302,60
369,12	2315,90
369,59	2304,10
370,06	2320,30
370,53	2313,60
370,99	2309,90
371,46	2536,60
371,93	2314,10
372,40	2307,10
372,87	2301,00
373,34	2314,30
373,81	2313,80
374,27	2305,60
374,74	2306,50
375,21	2316,40
375,68	2301,90
376,15	2325,20
376,62	2307,60
377,09	2298,30
377,55	2304,30
378,02	2313,40
378,49	2314,90
378,96	2312,90
379,43	2309,00
379,90	2313,60
380,36	2316,60
380,83	2319,90
381,30	2310,10
381,77	2324,20
382,24	2325,00
382,71	2305,50
383,17	2317,90
383,64	2312,70
384,11	2315,00
384,58	2315,70
385,05	2361,20
385,51	2311,60
385,98	2309,80
386,45	2311,10
386,92	2324,50
387,39	2304,00
387,85	2303,10
388,32	2320,10
388,79	2313,70
389,26	2320,70
389,72	2307,40
390,19	2318,00
390,66	2314,80
391,13	2312,50
391,59	2310,00
392,06	2312,40
392,53	2313,10
393,00	2307,80
393,46	2311,30
393,93	2329,00
394,40	2311,70
394,87	2322,80
395,33	2306,30
395,80	2317,40
396,27	2350,50
396,74	2301,60
397,20	2313,60
397,67	2315,00
398,14	2305,90
398,61	2309,00
399,07	2308,30
399,54	2306,40
400,01	2321,80
400,47	2302,90
400,94	2310,40
401,41	2308,80
401,88	2314,80
402,34	2311,50
402,81	2312,30
403,28	2305,70
403,74	2326,40
404,21	2310,50
404,68	2325,10
405,14	2323,30
405,61	2318,30
406,08	2305,60
406,54	2315,00
407,01	2313,40
407,48	2329,70
407,95	2310,90
408,41	2313,50
408,88	2311,10
409,35	2304,00
409,81	2320,70
410,28	2305,00
410,74	2316,70
411,21	2302,60
411,68	2320,00
412,14	2309,40
412,61	2297,00
413,08	2313,40
413,54	2309,50
414,01	2314,10
414,48	2316,50
414,94	2326,90
415,41	2307,20
415,88	2326,60
416,34	2314,80
416,81	2311,00
417,27	2323,60
417,74	2318,00
418,21	2309,50
418,67	2316,40
419,14	2310,50
419,60	2321,80
420,07	2303,20
420,54	2320,10
421,00	2304,70
421,47	2317,40
421,93	2304,00
422,40	2319,40
422,87	2302,20
423,33	2315,70
423,80	2313,00
424,26	2319,20
424,73	2311,70
425,19	2321,90
425,66	2313,00
426,13	2321,00
426,59	2309,80
427,06	2316,40
427,52	2323,20
427,99	2319,50
428,45	2307,60
428,92	2317,10
429,38	2312,30
429,85	2310,80
430,32	2315,50
430,78	2336,50
431,25	2303,40
431,71	2308,40
432,18	2320,60
432,64	2322,90
433,11	2309,40
433,57	2307,70
434,04	2310,00
434,50	2311,00
434,97	2318,90
435,43	2306,10
435,90	2315,20
436,36	2308,40
436,83	2303,40
437,29	2316,10
437,76	2312,20
438,22	2311,60
438,69	2309,10
439,15	2307,80
439,62	2344,30
440,08	2317,10
440,55	2318,80
441,01	2317,00
441,48	2306,30
441,94	2311,10
442,41	2331,50
442,87	2306,50
443,34	2312,80
443,80	2314,00
444,27	2299,00
444,73	2328,50
445,20	2313,90
445,66	2315,10
446,12	2308,80
446,59	2311,70
447,05	2311,60
447,52	2311,90
447,98	2307,90
448,45	2306,30
448,91	2319,20
449,38	2315,50
449,84	2312,20
450,30	2307,50
450,77	2304,20
451,23	2308,40
451,70	2313,10
452,16	2315,00
452,63	2304,90
453,09	2319,30
453,55	2306,40
454,02	2306,80
454,48	2310,90
454,95	2315,10
455,41	2309,50
455,87	2308,40
456,34	2319,30
456,80	2304,50
457,27	2320,80
457,73	2310,80
458,19	2311,50
458,66	2304,20
459,12	2308,20
459,58	2309,70
460,05	2331,80
460,51	2309,00
460,98	2302,00
461,44	2322,20
461,90	2319,90
462,37	2306,40
462,83	2305,20
463,29	2314,10
463,76	2310,30
464,22	2312,30
464,68	2313,10
465,15	2302,50
465,61	2307,40
466,07	2320,30
466,54	2312,90
467,00	2313,10
467,46	2310,60
467,93	2314,20
468,39	2319,60
468,85	2311,70
469,32	2314,80
469,78	2299,50
470,24	2311,90
470,71	2314,10
471,17	2311,10
471,63	2310,60
472,10	2302,00
472,56	2307,30
473,02	2310,40
473,48	2318,80
473,95	2306,60
474,41	2305,10
474,87	2308,40
475,34	2304,60
475,80	2314,90
476,26	2310,20
476,72	2313,70
477,19	2311,90
477,65	2312,50
478,11	2323,40
478,58	2319,30
479,04	2317,40
479,50	2305,00
479,96	2330,70
480,43	2315,60
480,89	2315,60
481,35	2308,10
481,81	2304,50
482,28	2311,60
482,74	2304,70
483,20	2307,40
483,66	2305,20
484,13	2311,50
484,59	2323,80
485,05	2314,40
485,51	2309,50
485,97	2299,80
486,44	2307,60
486,90	2301,70
487,36	2312,50
487,82	2301,30
488,29	2301,30
488,75	2308,30
489,21	2312,40
489,67	2315,10
490,13	2320,50
490,60	2301,60
491,06	2312,20
491,52	2306,00
491,98	2307,20
492,44	2302,40
492,90	2318,50
493,37	2317,20
493,83	2306,90
494,29	2305,60
494,75	2309,40
495,21	2308,80
495,67	2306,20
496,14	2309,10
496,60	2310,40
497,06	2310,50
497,52	2330,40
497,98	2317,30
498,44	2304,40
498,91	2310,10
499,37	2309,30
499,83	2333,70
500,29	2310,40
500,75	2306,30
501,21	2313,20
501,67	2305,40
502,14	2318,10
502,60	2313,30
503,06	2357,90
503,52	2306,30
503,98	2311,20
504,44	2314,40
504,90	2316,30
505,36	2314,90
505,82	2304,40
506,29	2312,70
506,75	2314,30
507,21	2307,70
507,67	2311,90
508,13	2311,60
508,59	2307,80
509,05	2304,80
509,51	2302,40
509,97	2308,60
510,43	2309,10
510,89	2305,70
511,35	2323,00
511,82	2320,90
512,28	2305,30
512,74	2299,40
513,20	2305,60
513,66	2315,50
514,12	2299,20
514,58	2314,00
515,04	2328,50
515,50	2295,30
515,96	2312,00
516,42	2317,90
516,88	2318,10
517,34	2337,70
517,80	2314,30
518,26	2307,90
518,72	2346,90
519,18	2304,50
519,64	2307,20
520,10	2300,20
520,56	2305,90
521,02	2313,90
521,48	2313,80
521,94	2316,10
522,40	2309,60
522,86	2299,50
523,32	2326,10
523,78	2316,60
524,24	2307,60
524,70	2331,40
525,16	2318,70
525,62	2315,20
526,08	2321,20
526,54	2311,40
527,00	2310,50
527,46	2305,10
527,92	2310,30
528,38	2315,60
528,84	2315,60
529,30	2306,90
529,76	2299,70
530,22	2312,50
530,68	2313,70
531,14	2304,10
531,60	2322,50
532,06	2308,00
532,52	2314,10
532,98	2310,30
533,44	2310,20
533,90	2308,80
534,36	2304,50
534,82	2309,80
535,28	2307,20
535,73	2312,30
536,19	2301,50
536,65	2313,40
537,11	2300,10
537,57	2315,60
538,03	2310,60
538,49	2309,80
538,95	2326,70
539,41	2315,60
539,87	2356,60
540,33	2297,40
540,79	2321,50
541,24	2308,90
541,70	2301,50
542,16	2315,50
542,62	2311,10
543,08	2305,80
543,54	2331,10
544,00	2299,30
544,46	2328,50
544,91	2318,60
545,37	2311,40
545,83	2308,10
546,29	2319,70
546,75	2310,00
547,21	2311,30
547,67	2315,90
548,13	2316,50
548,58	2304,80
549,04	2311,20
549,50	2302,70
549,96	2331,40
550,42	2308,00
550,88	2302,10
551,33	2315,90
551,79	2313,70
552,25	2327,00
552,71	2312,80
553,17	2303,80
553,63	2314,80
554,08	2309,70
554,54	2305,20
555,00	2315,60
555,46	2310,30
555,92	2323,60
556,37	2316,30
556,83	2320,30
557,29	2297,00
557,75	2317,40
558,21	2330,20
558,66	2310,70
559,12	2313,10
559,58	2305,60
560,04	2304,60
560,50	2301,10
560,95	2311,50
561,41	2308,10
561,87	2307,30
562,33	2306,20
562,78	2307,00
563,24	2316,10
563,70	2320,60
564,16	2305,80
564,61	2314,30
565,07	2305,70
565,53	2311,70
565,99	2312,10
566,44	2321,60
566,90	2307,90
567,36	2307,90
567,82	2310,20
568,27	2319,00
568,73	2307,10
569,19	2307,50
569,65	2313,80
570,10	2311,70
570,56	2307,10
571,02	2317,50
571,47	2315,50
571,93	2306,30
572,39	2315,20
572,85	2308,60
573,30	2305,40
573,76	2307,10
574,22	2312,60
574,67	2320,00
575,13	2317,90
575,59	2303,40
576,04	2312,00
576,50	2296,20
576,96	2318,30
577,42	2311,70
577,87	2306,10
578,33	2300,90
578,79	2323,40
579,24	2313,70
579,70	2307,50
580,16	2316,50
580,61	2316,60
581,07	2307,20
581,53	2311,10
581,98	2312,50
582,44	2308,60
582,89	2300,60
583,35	2305,80
583,81	2316,40
584,26	2306,00
584,72	2311,50
585,18	2306,40
585,63	2335,80
586,09	2303,10
586,55	2310,70
587,00	2308,90
587,46	2307,30
587,91	2318,30
588,37	2302,40
588,83	2315,40
589,28	2310,10
589,74	2309,60
590,19	2312,50
590,65	2318,60
591,11	2307,30
591,56	2298,90
592,02	2318,60
592,47	2306,80
592,93	2310,90
593,39	2308,50
593,84	2316,40
594,30	2316,40
594,75	2310,40
595,21	2319,60
595,66	2307,70
596,12	2302,20
596,58	2324,80
597,03	2319,10
597,49	2320,90
597,94	2311,30
598,40	2298,50
598,85	2313,70
599,31	2320,90
599,76	2305,50
600,22	2315,60
600,67	2324,20
601,13	2314,30
601,59	2310,50
602,04	2300,50
602,50	2337,70
602,95	2307,20
603,41	2310,60
603,86	2301,70
604,32	2294,50
604,77	2318,30
605,23	2309,60
605,68	2312,20
606,14	2309,50
606,59	2299,40
607,05	2308,60
607,50	2308,90
607,96	2309,70
608,41	2314,40
608,87	2311,70
609,32	2332,60
609,78	2318,40
610,23	2309,40
610,69	2308,30
611,14	2310,40
611,60	2302,50
612,05	2327,90
612,50	2313,90
612,96	2309,50
613,41	2339,50
613,87	2299,60
614,32	2298,60
614,78	2303,10
615,23	2305,80
615,69	2307,40
616,14	2308,40
616,59	2304,20
617,05	2310,60
617,50	2310,30
617,96	2316,30
618,41	2303,10
618,87	2302,80
619,32	2308,20
619,77	2320,10
620,23	2306,10
620,68	2315,50
621,14	2318,00
621,59	2308,80
622,05	2314,30
622,50	2318,40
622,95	2315,60
623,41	2302,70
623,86	2305,40
624,32	2319,10
624,77	2301,40
625,22	2306,80
625,68	2312,00
626,13	2300,60
626,58	2305,40
627,04	2310,30
627,49	2306,60
627,95	2317,50
628,40	2315,90
628,85	2297,40
629,31	2308,30
629,76	2309,60
630,21	2304,50
630,67	2314,10
631,12	2309,50
631,57	2315,20
632,03	2315,70
632,48	2316,90
632,93	2305,60
633,39	2306,20
633,84	2301,30
634,29	2308,60
634,75	2301,60
635,20	2304,70
635,65	2306,30
636,11	2300,70
636,56	2308,50
637,01	2305,70
637,47	2303,30
637,92	2318,70
638,37	2313,90
638,83	2304,00
639,28	2309,10
639,73	2302,70
640,18	2301,30
640,64	2313,00
641,09	2318,80
641,54	2298,40
642,00	2300,90
642,45	2308,60
642,90	2299,40
643,35	2304,50
643,81	2313,50
644,26	2302,20
644,71	2301,80
645,17	2306,80
645,62	2300,40
646,07	2308,80
646,52	2309,30
646,98	2310,40
647,43	2314,40
647,88	2310,20
648,33	2310,20
648,79	2297,40
649,24	2316,00
649,69	2315,90
650,14	2345,30
650,59	2305,00
651,05	2303,20
651,50	2304,60
651,95	2312,30
652,40	2299,80
652,86	2308,60
653,31	2302,70
653,76	2304,20
654,21	2312,90
654,66	2311,10
655,12	2306,30
655,57	2299,30
656,02	2312,60
656,47	2302,30
656,92	2309,90
657,38	2309,70
657,83	2311,70
658,28	2307,50
658,73	2307,70
659,18	2300,80
659,63	2345,90
660,09	2304,10
660,54	2325,30
660,99	2303,10
661,44	2304,40
661,89	2307,70
662,34	2307,30
662,80	2300,10
663,25	2313,40
663,70	2306,30
664,15	2306,50
664,60	2307,50
665,05	2300,40
665,50	2304,40
665,96	2301,50
666,41	2310,90
666,86	2307,30
667,31	2337,40
667,76	2321,90
668,21	2305,10
668,66	2312,40
669,11	2300,70
669,56	2324,70
670,02	2293,80
670,47	2304,40
670,92	2324,80
671,37	2304,50
671,82	2326,00
672,27	2328,00
672,72	2305,50
673,17	2309,80
673,62	2318,40
674,07	2337,50
674,52	2307,50
674,98	2316,10
675,43	2296,40
675,88	2299,60
676,33	2311,80
676,78	2310,30
677,23	2306,10
677,68	2303,80
678,13	2330,50
678,58	2297,60
679,03	2306,10
679,48	2312,90
679,93	2304,00
680,38	2308,50
680,83	2307,90
681,28	2296,00
681,73	2293,40
682,18	2302,50
682,63	2310,20
683,08	2318,00
683,53	2312,60
683,98	2311,00
684,43	2320,60
684,89	2311,70
685,34	2312,50
685,79	2308,00
686,24	2300,50
686,69	2303,00
687,14	2312,10
687,59	2305,00
688,04	2310,40
688,49	2309,90
688,93	2336,90
689,38	2313,20
689,83	2296,40
690,28	2305,10
690,73	2306,80
691,18	2301,20
691,63	2306,90
692,08	2300,40
692,53	2309,90
692,98	2305,50
693,43	2316,70
693,88	2319,40
694,33	2306,80
694,78	2310,10
695,23	2347,90
695,68	2307,70
696,13	2308,40
696,58	2324,50
697,03	2307,40
697,48	2309,60
697,93	2310,60
698,38	2301,10
698,82	2316,80
699,27	2315,50
699,72	2305,00
700,17	2304,80
700,62	2315,30
701,07	2317,30
701,52	2344,80
701,97	2303,50
702,42	2323,50
702,87	2303,60
703,32	2306,10
703,76	2306,10
704,21	2307,60
704,66	2301,90
705,11	2316,50
705,56	2319,90
706,01	2319,90
706,46	2302,10
706,91	2313,60
707,36	2307,40
707,80	2308,70
708,25	2316,40
708,70	2319,20
709,15	2308,00
709,60	2306,10
710,05	2310,90
710,50	2309,50
710,94	2306,40
711,39	2313,10
711,84	2303,70
712,29	2307,30
712,74	2303,10
713,19	2329,60
713,63	2308,30
714,08	2308,50
714,53	2316,20
714,98	2319,20
715,43	2302,40
715,87	2310,40
716,32	2303,00
716,77	2306,60
717,22	2301,70
717,67	2299,70
718,12	2308,70
718,56	2323,00
719,01	2303,50
719,46	2300,30
719,91	2307,80
720,35	2307,40
720,80	2303,30
721,25	2309,80
721,70	2306,40
722,15	2309,20
722,59	2305,60
723,04	2298,80
723,49	2298,00
723,94	2304,90
724,38	2295,20
724,83	2310,70
725,28	2297,90
725,73	2305,70
726,17	2307,10
726,62	2304,80
727,07	2324,20
727,52	2298,90
727,96	2320,20
728,41	2314,80
728,86	2307,00
729,31	2319,60
729,75	2302,40
730,20	2314,90
730,65	2304,10
731,09	2306,10
731,54	2312,50
731,99	2311,50
732,44	2310,30
732,88	2304,30
733,33	2314,10
733,78	2311,20
734,22	2303,20
734,67	2316,40
735,12	2316,30
735,57	2309,40
736,01	2335,00
736,46	2303,10
736,91	2310,50
737,35	2318,40
737,80	2313,60
738,25	2307,00
738,69	2310,20
739,14	2309,60
739,59	2297,80
740,03	2322,20
740,48	2314,30
740,93	2298,40
741,37	2312,60
741,82	2314,20
742,26	2309,40
742,71	2307,30
743,16	2302,20
743,60	2302,10
744,05	2307,80
744,50	2319,50
744,94	2318,80
745,39	2312,40
745,84	2315,00
746,28	2323,70
746,73	2296,90
747,17	2302,10
747,62	2298,30
748,07	2312,30
748,51	2306,10
748,96	2302,40
749,40	2313,10
749,85	2334,10
750,30	2307,30
750,74	2306,80
751,19	2297,20
751,63	2308,10
752,08	2308,30
752,53	2304,70
752,97	2325,40
753,42	2299,40
753,86	2309,40
754,31	2296,10
754,75	2302,80
755,20	2302,30
755,64	2307,40
756,09	2303,70
756,54	2313,80
756,98	2307,20
757,43	2321,60
757,87	2309,50
758,32	2308,30
758,76	2309,10
759,21	2309,70
759,65	2307,10
760,10	2304,10
760,54	2309,80
760,99	2309,80
761,43	2315,70
761,88	2318,90
762,33	2308,40
762,77	2300,30
763,22	2303,90
763,66	2315,10
764,11	2305,80
764,55	2303,60
765,00	2305,00
765,44	2311,60
765,89	2304,00
766,33	2302,10
766,77	2303,60
767,22	2310,60
767,66	2310,90
768,11	2309,50
768,55	2312,60
769,00	2303,20
769,44	2327,40
769,89	2304,70
770,33	2308,90
770,78	2303,50
771,22	2303,60
771,67	2315,50
772,11	2305,00
772,56	2309,50
773,00	2298,80
773,44	2306,40
773,89	2304,20
774,33	2293,10
774,78	2307,50
775,22	2301,40
775,67	2312,80
776,11	2310,30
776,55	2301,90
777,00	2306,50
777,44	2303,10
777,89	2312,40
778,33	2317,40
778,77	2305,60
779,22	2306,80
779,66	2335,40
780,11	2316,80
780,55	2310,80
780,99	2319,10
781,44	2311,00
781,88	2301,00
782,33	2311,40
782,77	2299,00
783,21	2308,30
783,66	2314,70
784,10	2311,70
784,55	2308,50
784,99	2304,60
785,43	2309,40
785,88	2304,50
786,32	2314,00
786,76	2316,90
787,21	2317,10
787,65	2297,80
788,09	2302,20
788,54	2308,00
788,98	2334,90
789,42	2304,30
789,87	2304,70
790,31	2306,60
790,75	2297,10
791,20	2302,60
791,64	2319,40
792,08	2307,50
792,53	2313,80
792,97	2304,50
793,41	2346,70
793,86	2317,60
794,30	2311,10
794,74	2311,40
795,18	2309,00
795,63	2304,70
796,07	2313,50
796,51	2312,60
796,96	2306,60
797,40	2310,00
797,84	2299,50
798,28	2309,10
798,73	2314,90
799,17	2309,50
799,61	2303,90
800,06	2326,30
800,50	2310,40
800,94	2300,40
801,38	2310,90
801,83	2308,90
802,27	2302,20
802,71	2316,40
803,15	2323,40
803,60	2316,40
804,04	2311,10
804,48	2308,90
804,92	2303,10
805,37	2326,10
805,81	2329,60
806,25	2326,40
806,69	2313,30
807,13	2324,80
807,58	2303,00
808,02	2305,40
808,46	2302,80
808,90	2312,50
809,34	2309,50
809,79	2303,00
810,23	2302,80
810,67	2312,90
811,11	2319,30
811,55	2337,60
812,00	2305,90
812,44	2304,30
812,88	2316,70
813,32	2328,60
813,76	2313,80
814,21	2309,70
814,65	2319,40
815,09	2318,30
815,53	2309,90
815,97	2305,50
816,41	2304,70
816,85	2304,70
817,30	2314,60
817,74	2310,90
818,18	2315,40
818,62	2306,50
819,06	2317,70
819,50	2323,90
819,94	2304,90
820,39	2312,80
820,83	2311,80
821,27	2308,30
821,71	2308,40
822,15	2326,50
822,59	2303,80
823,03	2308,60
823,47	2314,70
823,92	2304,40
824,36	2307,00
824,80	2308,30
825,24	2308,60
825,68	2311,00
826,12	2305,20
826,56	2303,90
827,00	2296,70
827,44	2309,90
827,88	2310,80
828,32	2320,20
828,77	2306,90
829,21	2316,40
829,65	2313,90
830,09	2304,50
830,53	2328,20
830,97	2307,20
831,41	2326,40
831,85	2321,10
832,29	2313,20
832,73	2300,00
833,17	2311,60
833,61	2310,10
834,05	2320,00
834,49	2312,80
834,93	2303,50
835,37	2303,50
835,81	2319,80
836,25	2308,20
836,69	2311,10
837,13	2305,50
837,57	2322,20
838,01	2305,90
838,45	2307,50
838,89	2317,00
839,33	2308,20
839,77	2330,60
840,21	2327,70
840,65	2311,20
841,09	2313,50
841,53	2299,10
841,97	2302,20
842,41	2303,30
842,85	2305,20
843,29	2317,60
843,73	2306,00
844,17	2313,70
844,61	2303,50
845,05	2308,00
845,49	2318,40
845,93	2304,80
846,37	2316,70
846,81	2306,00
847,25	2300,90
847,69	2310,20
848,13	2303,70
848,57	2306,50
849,01	2307,20
849,45	2312,10
849,89	2319,50
850,32	2315,40
850,76	2305,60
851,20	2318,90
851,64	2301,90
852,08	2310,70
852,52	2317,00
852,96	2306,80
853,40	2304,10
853,84	2314,10
854,28	2296,60
854,72	2315,70
855,16	2299,10
855,59	2303,70
856,03	2321,50
856,47	2321,30
856,91	2313,20
857,35	2313,40
857,79	2311,70
858,23	2298,80
858,67	2318,00
859,10	2299,40
859,54	2305,80
859,98	2304,60
860,42	2309,40
860,86	2313,40
861,30	2318,00
861,74	2303,00
862,17	2307,30
862,61	2316,60
863,05	2304,90
863,49	2303,00
863,93	2318,70
864,37	2300,60
864,80	2307,20
865,24	2311,70
865,68	2301,00
866,12	2305,80
866,56	2296,20
867,00	2314,30
867,43	2303,20
867,87	2310,20
868,31	2309,50
868,75	2307,40
869,19	2310,40
869,62	2308,20
870,06	2324,40
870,50	2331,70
870,94	2301,70
871,38	2309,00
871,81	2309,70
872,25	2304,70
872,69	2311,50
873,13	2314,70
873,56	2308,70
874,00	2318,70
874,44	2318,30
874,88	2307,20
875,31	2297,60
875,75	2318,10
876,19	2295,90
876,63	2307,60
877,06	2307,90
877,50	2307,30
877,94	2312,90
878,38	2308,70
878,81	2314,90
879,25	2308,10
879,69	2327,20
880,13	2305,60
880,56	2303,70
881,00	2306,90
881,44	2307,80
881,87	2314,40
882,31	2308,90
882,75	2310,20
883,19	2306,40
883,62	2307,40
884,06	2302,80
884,50	2314,40
884,93	2307,40
885,37	2315,10
885,81	2313,40
886,24	2305,70
886,68	2307,40
887,12	2322,70
887,55	2301,50
887,99	2305,40
888,43	2310,50
888,86	2306,00
889,30	2338,50
889,74	2303,20
890,17	2314,30
890,61	2304,50
891,05	2308,20
891,48	2312,30
891,92	2298,90
892,36	2305,30
892,79	2309,20
893,23	2299,80
893,67	2303,40
894,10	2306,60
894,54	2304,50
894,97	2310,40
895,41	2309,50
895,85	2301,60
896,28	2308,30
896,72	2312,70
897,16	2302,60
897,59	2302,10
898,03	2305,60
898,46	2311,60
898,90	2321,40
899,34	2301,70
899,77	2303,40
900,21	2306,20
900,64	2316,80
901,08	2314,80
901,51	2305,40
901,95	2328,50
902,39	2328,10
902,82	2303,00
903,26	2307,10
903,69	2322,20
904,13	2306,60
904,56	2312,20
905,00	2304,00
905,43	2310,40
905,87	2299,90
906,31	2316,30
906,74	2310,20
907,18	2318,40
907,61	2315,20
908,05	2308,30
908,48	2309,80
908,92	2320,20
909,35	2307,00
909,79	2303,20
910,22	2312,90
910,66	2310,70
911,09	2306,70
911,53	2306,90
911,96	2304,00
912,40	2307,60
912,83	2310,40
913,27	2314,40
913,70	2314,30
914,14	2306,60
914,57	2300,40
915,01	2301,20
915,44	2310,40
915,88	2300,30
916,31	2315,40
916,75	2303,10
917,18	2319,00
917,62	2305,30
918,05	2315,80
918,49	2304,70
918,92	2308,90
919,35	2310,40
919,79	2309,90
920,22	2318,60
920,66	2310,10
921,09	2325,70
921,53	2315,50
921,96	2310,50
922,40	2296,30
922,83	2303,40
923,26	2311,30
923,70	2323,40
924,13	2312,70
924,57	2301,40
925,00	2314,50
925,44	2300,50
925,87	2317,60
926,30	2328,60
926,74	2308,70
927,17	2315,30
927,61	2301,70
928,04	2323,30
928,47	2310,40
928,91	2303,40
929,34	2315,80
929,77	2308,80
930,21	2313,60
930,64	2315,70
931,08	2303,40
931,51	2313,20
931,94	2300,40
932,38	2324,50
932,81	2320,10
933,24	2331,90
933,68	2308,30
934,11	2321,50
934,54	2316,40
934,98	2314,80
935,41	2312,10
935,84	2300,80
936,28	2305,90
936,71	2306,30
937,14	2315,20
937,58	2303,10
938,01	2310,70
938,44	2305,50
938,88	2306,90
939,31	2311,40
939,74	2304,60
940,18	2310,10
940,61	2317,90
941,04	2335,00
941,48	2301,10
941,91	2318,10
942,34	2302,90
942,77	2308,30
943,21	2316,20
943,64	2299,70
944,07	2300,50
944,51	2316,50
944,94	2312,40
945,37	2314,20
945,80	2309,10
946,24	2308,80
946,67	2312,10
947,10	2321,90
947,53	2308,60
947,97	2310,20
948,40	2315,40
948,83	2300,30
949,26	2302,70
949,70	2306,90
950,13	2332,10
950,56	2324,40
950,99	2306,80
951,43	2306,80
951,86	2314,00
952,29	2299,70
952,72	2312,40
953,15	2311,90
953,59	2326,70
954,02	2300,30
954,45	2303,50
954,88	2305,20
955,31	2308,50
955,75	2305,60
956,18	2315,50
956,61	2305,40
957,04	2311,50
957,47	2340,20
957,91	2299,90
958,34	2313,00
958,77	2312,40
959,20	2306,90
959,63	2306,30
960,06	2307,70
960,50	2293,00
960,93	2304,70
961,36	2315,50
961,79	2314,30
962,22	2314,80
962,65	2320,60
963,09	2304,30
963,52	2310,40
963,95	2307,70
964,38	2307,40
964,81	2307,90
965,24	2306,90
965,67	2317,60
966,10	2307,80
966,54	2307,90
966,97	2314,20
967,40	2303,30
967,83	2304,10
968,26	2319,10
968,69	2348,60
969,12	2314,60
969,55	2310,70
969,98	2307,50
970,42	2304,70
970,85	2306,70
971,28	2315,10
971,71	2307,20
972,14	2305,20
972,57	2302,00
973,00	2304,80
973,43	2306,90
973,86	2316,40
974,29	2307,10
974,72	2313,20
975,15	2317,60
975,58	2308,10
976,01	2306,00
976,45	2301,80
976,88	2314,10
977,31	2299,30
977,74	2311,70
978,17	2310,20
978,60	2307,30
979,03	2307,70
979,46	2307,30
979,89	2316,10
980,32	2311,20
980,75	2306,10
981,18	2313,50
981,61	2316,80
982,04	2307,70
982,47	2306,30
982,90	2306,10
983,33	2305,90
983,76	2302,30
984,19	2320,30
984,62	2319,30
985,05	2305,80
985,48	2294,90
985,91	2308,60
986,34	2312,80
986,77	2309,40
987,20	2304,00
987,63	2313,80
988,06	2311,30
988,49	2309,80
988,92	2308,60
989,35	2313,00
989,78	2311,80
990,20	2312,40
990,63	2316,80
991,06	2310,30
991,49	2311,40
991,92	2329,40
992,35	2305,80
992,78	2304,80
993,21	2312,10
993,64	2306,00
994,07	2306,70
994,50	2315,00
994,93	2315,90
995,36	2308,50
995,79	2310,90
996,21	2300,50
996,64	2301,20
997,07	2294,60
997,50	2323,50
997,93	2313,40
998,36	2306,70
998,79	2313,20
999,22	2303,00
999,65	2324,30
1000,07	2308,60
1000,50	2313,20
1000,93	2315,00
1001,36	2307,30
1001,79	2307,70
1002,22	2317,60
1002,65	2312,20
1003,08	2316,60
1003,50	2307,20
1003,93	2313,00
1004,36	2302,00
1004,79	2311,90
1005,22	2310,80
1005,65	2318,90
1006,07	2308,70
1006,50	2303,40
1006,93	2312,50
1007,36	2308,20
1007,79	2305,00
1008,22	2302,40
1008,64	2308,50
1009,07	2309,10
1009,50	2344,00
1009,93	2320,10
1010,36	2317,10
1010,78	2314,60
1011,21	2316,20
1011,64	2317,40
1012,07	2305,70
1012,50	2312,50
1012,92	2308,00
1013,35	2314,50
1013,78	2315,70
1014,21	2303,80
1014,64	2323,40
1015,06	2299,80
1015,49	2312,60
1015,92	2307,90
1016,35	2315,80
1016,77	2303,20
1017,20	2312,70
1017,63	2307,20
1018,06	2466,60
1018,48	2309,60
1018,91	2296,70
1019,34	2332,30
1019,77	2319,80
1020,19	2316,10
1020,62	2309,20
1021,05	2305,90
1021,47	2310,30
1021,90	2313,30
1022,33	2313,20
1022,76	2307,90
1023,18	2342,90
1023,61	2320,70
1024,04	2318,40
1024,46	2314,40
1024,89	2311,30
1025,32	2312,10
1025,75	2316,90
1026,17	2302,60
1026,60	2302,20
1027,03	2329,40
1027,45	2313,70
1027,88	2311,10
1028,31	2309,90
1028,73	2313,00
1029,16	2313,50
1029,59	2328,30
1030,01	2308,80
1030,44	2305,00
1030,87	2312,60
1031,29	2316,20
1031,72	2299,50
1032,15	2315,60
1032,57	2316,30
1033,00	2312,60
1033,42	2319,60
1033,85	2301,00
1034,28	2309,70
1034,70	2314,00
1035,13	2317,40
1035,56	2307,90
1035,98	2329,90
1036,41	2303,80
1036,83	2306,10
1037,26	2311,80
1037,69	2305,50
1038,11	2320,60
1038,54	2314,20
1038,96	2320,80
1039,39	2320,00
1039,82	2327,60
1040,24	2310,00
1040,67	2308,90
1041,09	2314,20
1041,52	2304,60
1041,95	2321,50
1042,37	2321,90
1042,80	2311,70
1043,22	2322,60
1043,65	2311,30
1044,07	2317,00
1044,50	2305,20
1044,92	2316,50
1045,35	2306,80
1045,78	2305,20
1046,20	2314,80
1046,63	2311,50
1047,05	2306,90
1047,48	2314,60
1047,90	2319,50
1048,33	2306,10
1048,75	2319,00
1049,18	2314,30
1049,60	2319,20
1050,03	2310,10
1050,45	2307,00
1050,88	2314,80
1051,30	2317,00
1051,73	2333,30
1052,15	2325,50
1052,58	2306,60
1053,00	2314,50
1053,43	2297,00
1053,85	2311,70
1054,28	2298,30
1054,70	2309,70
1055,13	2308,80
1055,55	2315,80
1055,98	2316,50
1056,40	2329,00
1056,83	2319,40
1057,25	2323,10
1057,68	2312,80
1058,10	2349,20
1058,52	2303,80
1058,95	2316,90
1059,37	2316,50
1059,80	2310,10
1060,22	2309,40
1060,65	2305,50
1061,07	2318,60
1061,50	2311,90
1061,92	2307,70
1062,34	2317,80
1062,77	2327,30
1063,19	2315,40
1063,62	2310,50
1064,04	2309,60
1064,46	2318,30
1064,89	2318,70
1065,31	2306,70
1065,74	2307,10
1066,16	2305,60
1066,58	2319,00
1067,01	2315,40
1067,43	2309,00
1067,86	2313,00
1068,28	2314,00
1068,70	2327,70
1069,13	2312,90
1069,55	2308,70
1069,97	2302,70
1070,40	2318,70
1070,82	2320,90
1071,25	2321,20
1071,67	2310,20
1072,09	2316,60
1072,52	2308,00
1072,94	2304,40
1073,36	2300,90
1073,79	2319,00
1074,21	2310,10
1074,63	2305,50
1075,06	2305,40
1075,48	2308,30
1075,90	2310,40
1076,33	2304,20
1076,75	2302,30
1077,17	2311,70
1077,59	2319,60
1078,02	2309,10
1078,44	2324,60
1078,86	2321,70
1079,29	2301,50
1079,71	2311,20
1080,13	2314,60
1080,56	2311,10
1080,98	2314,80
1081,40	2314,70
1081,82	2311,00
1082,25	2313,70
1082,67	2310,90
1083,09	2311,40
1083,51	2310,60
1083,94	2312,80
1084,36	2320,70
1084,78	2311,30
1085,21	2313,70
1085,63	2320,80
1086,05	2303,10
1086,47	2311,30
1086,89	2313,40
1087,32	2304,90
1087,74	2314,80
1088,16	2607,20
1088,58	2312,30
1089,01	2305,90
1089,43	2306,80
1089,85	2308,50
1090,27	2320,20
1090,69	2309,50
1091,12	2304,50
1091,54	2315,40
1091,96	2308,70
1092,38	2308,60
1092,80	2309,10
1093,23	2304,20
1093,65	2310,30
1094,07	2307,30
1094,49	2308,90
1094,91	2306,70
1095,34	2309,00
1095,76	2308,40
1096,18	2311,80
1096,60	2314,20
1097,02	2305,30
1097,44	2308,50
1097,87	2309,90
1098,29	2313,00
1098,71	2316,60
1099,13	2318,70
1099,55	2309,90
1099,97	2311,20
1100,39	2305,80
1100,82	2312,30
1101,24	2303,20
1101,66	2309,00
1102,08	2301,40
1102,50	2306,00
1102,92	2308,40
1103,34	2308,20
1103,76	2316,70
1104,19	2373,30
1104,61	2320,60
1105,03	2301,00
1105,45	2314,00
1105,87	2309,90
1106,29	2306,00
1106,71	2308,40
1107,13	2297,60
1107,55	2302,80
1107,97	2318,00
1108,39	2301,90
1108,82	2312,30
1109,24	2309,20
1109,66	2309,90
1110,08	2293,90
1110,50	2308,20
1110,92	2298,70
1111,34	2303,30
1111,76	2298,00
1112,18	2302,80
1112,60	2297,80
1113,02	2307,20
1113,44	2299,80
1113,86	2298,20
1114,28	2306,60
1114,70	2312,10
1115,12	2303,70
1115,54	2305,50
1115,96	2301,30
1116,38	2313,40
1116,80	2309,40
1117,22	2301,80
1117,64	2297,60
1118,06	2182,40
1118,48	2185,10
1118,90	2184,90
1119,32	2184,70
>>>>>End Processed Spectral Data<<<<<
