SpectraSuite Data File
++++++++++++++++++++++++++++++++++++
Date: Thu Feb 11 10:03:32 EET 2016
User: OO Maya
Dark Spectrum Present: No
Reference Spectrum Present: No
Number of Sampled Component Spectra: 1
Spectrometers: MAYP11278
Integration Time (usec): 100000 (MAYP11278)
Spectra Averaged: 10 (MAYP11278)
Boxcar Smoothing: 0 (MAYP11278)
Correct for Electrical Dark: No (MAYP11278)
Strobe/Lamp Enabled: No (MAYP11278)
Correct for Detector Non-linearity: No (MAYP11278)
Correct for Stray Light: No (MAYP11278)
Number of Pixels in Processed Spectrum: 2068
>>>>>Begin Processed Spectral Data<<<<<
188,50	2299,90
188,98	2219,10
189,46	2189,80
189,94	2190,90
190,41	2338,70
190,89	2344,80
191,37	2349,50
191,85	2357,20
192,33	2367,70
192,81	2351,50
193,28	2354,00
193,76	2347,40
194,24	2355,00
194,72	2352,00
195,20	2356,70
195,68	2351,50
196,15	2362,20
196,63	2350,00
197,11	2351,00
197,59	2376,20
198,07	2356,50
198,54	2343,10
199,02	2349,70
199,50	2347,80
199,98	2351,40
200,46	2361,90
200,93	2349,90
201,41	2351,70
201,89	2362,00
202,37	2358,80
202,85	2360,90
203,32	2347,90
203,80	2359,20
204,28	2348,50
204,76	2364,40
205,24	2369,40
205,71	2348,40
206,19	2350,60
206,67	2369,50
207,15	2352,70
207,62	2361,50
208,10	2383,20
208,58	2360,80
209,06	2361,40
209,53	2356,80
210,01	2363,00
210,49	2358,20
210,97	2358,80
211,44	2360,40
211,92	2364,80
212,40	2362,30
212,88	2356,70
213,35	2373,20
213,83	2367,10
214,31	2357,80
214,78	2377,40
215,26	2366,10
215,74	2372,50
216,22	2367,00
216,69	2370,20
217,17	2369,40
217,65	2363,20
218,12	2353,10
218,60	2362,40
219,08	2371,90
219,56	2347,10
220,03	2355,70
220,51	2356,50
220,99	2364,50
221,46	2384,10
221,94	2360,60
222,42	2367,40
222,89	2358,50
223,37	2372,40
223,85	2357,50
224,32	2372,80
224,80	2363,70
225,28	2360,60
225,75	2358,00
226,23	2364,90
226,71	2361,10
227,18	2364,80
227,66	2374,10
228,14	2365,50
228,61	2374,70
229,09	2377,00
229,57	2374,20
230,04	2369,50
230,52	2373,60
231,00	2367,70
231,47	2377,30
231,95	2382,80
232,42	2372,20
232,90	2374,80
233,38	2363,00
233,85	2375,60
234,33	2379,70
234,81	2415,70
235,28	2382,10
235,76	2375,10
236,23	2379,20
236,71	2372,30
237,19	2390,00
237,66	2402,40
238,14	2378,30
238,61	2393,80
239,09	2388,90
239,57	2391,40
240,04	2392,00
240,52	2379,50
240,99	2406,60
241,47	2408,30
241,95	2401,00
242,42	2399,50
242,90	2413,90
243,37	2427,90
243,85	2408,10
244,32	2415,30
244,80	2440,10
245,28	2453,80
245,75	2455,50
246,23	2490,20
246,70	3007,10
247,18	2508,80
247,65	2555,50
248,13	2596,00
248,60	2663,60
249,08	2731,80
249,56	2743,20
250,03	2818,20
250,51	2894,60
250,98	3020,60
251,46	3256,60
251,93	3850,70
252,41	4835,80
252,88	6250,70
253,36	13928,70
253,83	36605,30
254,31	52619,30
254,78	53844,50
255,26	16032,20
255,73	4893,40
256,21	3330,10
256,68	2965,30
257,16	2813,60
257,63	2732,20
258,11	2672,30
258,58	2655,50
259,06	2594,10
259,53	2557,60
260,01	2539,10
260,48	2517,20
260,96	2510,40
261,43	2472,80
261,91	2465,50
262,38	2462,00
262,86	2440,40
263,33	2450,20
263,81	2437,00
264,28	2420,90
264,75	2433,20
265,23	2452,50
265,70	2463,20
266,18	2489,90
266,65	2453,60
267,13	2420,60
267,60	2400,70
268,08	2395,80
268,55	2401,90
269,03	2392,30
269,50	2378,50
269,97	2382,60
270,45	2387,00
270,92	2400,80
271,40	2397,90
271,87	2386,30
272,34	2385,50
272,82	2376,80
273,29	2370,10
273,77	2365,60
274,24	2388,80
274,72	2413,40
275,19	2395,50
275,66	2411,30
276,14	2401,80
276,61	2402,80
277,09	2389,20
277,56	2386,10
278,03	2374,90
278,51	2376,50
278,98	2371,50
279,45	2425,10
279,93	2382,40
280,40	2385,40
280,88	2435,10
281,35	2406,90
281,82	2425,80
282,30	2389,60
282,77	2414,10
283,24	2406,10
283,72	2402,50
284,19	2393,60
284,66	2376,60
285,14	2374,10
285,61	2382,00
286,09	2376,80
286,56	2381,50
287,03	2381,60
287,51	2365,10
287,98	2383,30
288,45	2393,70
288,93	2378,30
289,40	2405,40
289,87	2434,90
290,35	2479,20
290,82	2407,70
291,29	2388,50
291,76	2376,90
292,24	2386,00
292,71	2408,10
293,18	2377,40
293,66	2403,10
294,13	2385,30
294,60	2400,00
295,08	2408,00
295,55	2408,80
296,02	2442,60
296,49	2576,60
296,97	3179,60
297,44	3866,60
297,91	3724,10
298,39	2688,20
298,86	2426,10
299,33	2392,30
299,80	2408,40
300,28	2377,50
300,75	2389,70
301,22	2380,20
301,69	2406,50
302,17	2439,30
302,64	2556,10
303,11	2610,60
303,58	2515,60
304,06	2407,40
304,53	2372,70
305,00	2372,10
305,47	2366,50
305,95	2378,80
306,42	2386,50
306,89	2382,50
307,36	2388,60
307,84	2383,30
308,31	2385,80
308,78	2389,20
309,25	2392,70
309,73	2410,60
310,20	2419,20
310,67	2442,00
311,14	2486,30
311,61	2561,80
312,09	2687,20
312,56	3160,30
313,03	4608,30
313,50	6863,80
313,97	7283,00
314,45	5205,30
314,92	2966,70
315,39	2503,30
315,86	2416,90
316,33	2417,50
316,80	2403,20
317,28	2384,50
317,75	2395,40
318,22	2383,90
318,69	2410,60
319,16	2379,30
319,63	2371,50
320,11	2365,40
320,58	2380,10
321,05	2390,10
321,52	2379,60
321,99	2372,40
322,46	2355,80
322,94	2364,10
323,41	2390,70
323,88	2371,90
324,35	2397,50
324,82	2363,80
325,29	2371,60
325,76	2367,80
326,24	2367,10
326,71	2366,20
327,18	2366,60
327,65	2375,70
328,12	2372,70
328,59	2375,80
329,06	2374,60
329,53	2367,50
330,00	2366,80
330,48	2362,70
330,95	2359,00
331,42	2382,00
331,89	2376,70
332,36	2393,70
332,83	2366,70
333,30	2398,70
333,77	2388,10
334,24	2400,70
334,71	2447,70
335,18	2545,80
335,66	2510,90
336,13	2435,40
336,60	2370,70
337,07	2368,30
337,54	2361,00
338,01	2373,10
338,48	2362,30
338,95	2365,40
339,42	2379,70
339,89	2377,70
340,36	2357,90
340,83	2362,40
341,30	2354,80
341,77	2367,60
342,24	2382,70
342,71	2364,10
343,18	2371,50
343,65	2375,90
344,12	2366,60
344,59	2363,40
345,06	2363,70
345,53	2360,30
346,01	2362,60
346,48	2372,40
346,95	2362,70
347,42	2361,80
347,89	2388,00
348,36	2360,60
348,83	2377,80
349,30	2369,80
349,77	2352,90
350,24	2365,90
350,71	2369,40
351,18	2367,70
351,65	2361,20
352,12	2373,90
352,59	2390,30
353,05	2377,10
353,52	2366,00
353,99	2373,50
354,46	2379,40
354,93	2379,70
355,40	2378,70
355,87	2378,50
356,34	2390,80
356,81	2369,30
357,28	2396,50
357,75	2377,80
358,22	2425,80
358,69	2405,30
359,16	2389,00
359,63	2404,90
360,10	2411,90
360,57	2421,80
361,04	2442,60
361,51	2456,90
361,98	2456,30
362,45	2478,60
362,91	2518,20
363,38	2621,20
363,85	2940,20
364,32	3390,70
364,79	3773,30
365,26	4794,50
365,73	7793,10
366,20	8223,50
366,67	4898,90
367,14	3700,70
367,61	3140,00
368,07	2829,50
368,54	2470,20
369,01	2448,50
369,48	2439,60
369,95	2417,70
370,42	2420,30
370,89	2415,50
371,36	2407,50
371,83	2692,80
372,29	2409,60
372,76	2405,90
373,23	2395,10
373,70	2408,60
374,17	2411,60
374,64	2401,80
375,11	2399,60
375,57	2418,90
376,04	2401,20
376,51	2426,10
376,98	2413,10
377,45	2406,00
377,92	2407,00
378,39	2416,30
378,85	2416,90
379,32	2412,60
379,79	2419,70
380,26	2419,70
380,73	2424,80
381,19	2434,90
381,66	2421,00
382,13	2440,70
382,60	2444,20
383,07	2409,00
383,54	2427,00
384,00	2426,00
384,47	2432,00
384,94	2436,10
385,41	2481,50
385,88	2436,10
386,34	2435,30
386,81	2431,60
387,28	2454,10
387,75	2426,80
388,22	2427,00
388,68	2442,30
389,15	2434,80
389,62	2452,40
390,09	2430,70
390,55	2445,20
391,02	2446,30
391,49	2450,40
391,96	2450,50
392,42	2449,00
392,89	2447,50
393,36	2443,20
393,83	2445,20
394,29	2471,20
394,76	2451,40
395,23	2457,00
395,70	2432,20
396,16	2451,60
396,63	2500,00
397,10	2446,10
397,57	2450,10
398,03	2463,20
398,50	2443,40
398,97	2455,50
399,44	2452,60
399,90	2454,30
400,37	2479,50
400,84	2460,90
401,30	2479,70
401,77	2495,00
402,24	2527,30
402,71	2572,10
403,17	2729,60
403,64	3268,40
404,11	4372,50
404,57	5294,90
405,04	6460,30
405,51	10071,30
405,97	7426,70
406,44	3464,40
406,91	2807,10
407,37	2738,70
407,84	2761,60
408,31	2845,00
408,77	3029,60
409,24	2704,20
409,71	2494,90
410,17	2485,80
410,64	2449,80
411,11	2467,70
411,57	2445,40
412,04	2463,90
412,51	2442,70
412,97	2432,40
413,44	2456,40
413,91	2444,70
414,37	2445,40
414,84	2447,30
415,30	2456,70
415,77	2435,10
416,24	2454,20
416,70	2437,90
417,17	2437,90
417,64	2452,60
418,10	2441,00
418,57	2430,90
419,03	2436,80
419,50	2438,10
419,97	2443,40
420,43	2420,80
420,90	2442,80
421,36	2425,10
421,83	2427,30
422,30	2420,70
422,76	2434,30
423,23	2429,70
423,69	2425,80
424,16	2430,90
424,63	2439,30
425,09	2428,80
425,56	2440,40
426,02	2431,50
426,49	2447,80
426,95	2427,50
427,42	2440,30
427,89	2438,50
428,35	2437,00
428,82	2423,90
429,28	2441,30
429,75	2440,90
430,21	2443,60
430,68	2452,40
431,14	2488,20
431,61	2465,50
432,07	2480,50
432,54	2523,70
433,01	2553,30
433,47	2615,40
433,94	2734,50
434,40	3116,10
434,87	4482,50
435,33	8280,50
435,80	12858,90
436,26	15762,80
436,73	23458,30
437,19	14337,70
437,66	4861,40
438,12	3160,00
438,59	2768,60
439,05	2612,00
439,52	2539,40
439,98	2543,30
440,45	2488,40
440,91	2475,80
441,38	2462,70
441,84	2440,40
442,31	2436,60
442,77	2459,30
443,24	2414,80
443,70	2424,00
444,16	2422,90
444,63	2404,00
445,09	2435,90
445,56	2417,80
446,02	2403,70
446,49	2407,20
446,95	2408,10
447,42	2405,30
447,88	2408,70
448,35	2387,50
448,81	2394,30
449,27	2407,50
449,74	2401,90
450,20	2400,30
450,67	2392,90
451,13	2389,00
451,60	2394,00
452,06	2396,40
452,52	2401,30
452,99	2386,70
453,45	2403,90
453,92	2394,50
454,38	2395,00
454,84	2392,80
455,31	2395,50
455,77	2390,20
456,24	2386,10
456,70	2400,50
457,16	2385,00
457,63	2402,00
458,09	2385,80
458,56	2386,90
459,02	2379,90
459,48	2390,50
459,95	2382,40
460,41	2406,80
460,87	2384,40
461,34	2378,00
461,80	2399,10
462,27	2390,80
462,73	2384,20
463,19	2380,80
463,66	2395,30
464,12	2385,50
464,58	2383,60
465,05	2385,70
465,51	2372,40
465,97	2381,90
466,44	2391,00
466,90	2383,10
467,36	2387,10
467,83	2385,70
468,29	2379,20
468,75	2385,80
469,22	2389,80
469,68	2376,00
470,14	2373,40
470,61	2384,80
471,07	2382,20
471,53	2376,10
472,00	2371,20
472,46	2374,50
472,92	2375,30
473,38	2376,60
473,85	2394,10
474,31	2379,10
474,77	2371,60
475,24	2376,20
475,70	2362,20
476,16	2380,20
476,62	2380,50
477,09	2380,80
477,55	2375,50
478,01	2376,10
478,48	2390,60
478,94	2376,00
479,40	2389,30
479,86	2368,10
480,33	2393,90
480,79	2381,60
481,25	2379,10
481,71	2367,40
482,18	2375,10
482,64	2381,40
483,10	2369,10
483,56	2375,50
484,03	2365,90
484,49	2378,40
484,95	2397,20
485,41	2383,20
485,87	2380,30
486,34	2371,50
486,80	2388,50
487,26	2369,80
487,72	2384,50
488,19	2378,20
488,65	2374,40
489,11	2382,20
489,57	2391,80
490,03	2383,20
490,50	2397,60
490,96	2376,70
491,42	2404,00
491,88	2404,80
492,34	2414,50
492,81	2400,70
493,27	2398,90
493,73	2383,40
494,19	2384,00
494,65	2373,40
495,11	2376,60
495,58	2374,60
496,04	2366,00
496,50	2375,10
496,96	2373,40
497,42	2373,90
497,88	2394,40
498,35	2388,30
498,81	2372,60
499,27	2374,00
499,73	2370,10
500,19	2396,90
500,65	2374,60
501,11	2366,70
501,57	2374,90
502,04	2370,60
502,50	2378,30
502,96	2372,00
503,42	2431,90
503,88	2373,80
504,34	2379,90
504,80	2377,70
505,26	2385,70
505,73	2373,70
506,19	2359,10
506,65	2368,70
507,11	2372,00
507,57	2364,70
508,03	2372,30
508,49	2371,90
508,95	2362,50
509,41	2352,60
509,87	2357,80
510,34	2360,10
510,80	2371,30
511,26	2362,70
511,72	2376,20
512,18	2383,90
512,64	2355,90
513,10	2354,30
513,56	2360,90
514,02	2367,40
514,48	2352,00
514,94	2380,70
515,40	2381,20
515,86	2354,90
516,32	2372,40
516,78	2374,90
517,24	2373,90
517,70	2402,80
518,16	2369,10
518,63	2371,80
519,09	2407,70
519,55	2367,00
520,01	2360,40
520,47	2358,40
520,93	2357,10
521,39	2374,70
521,85	2373,90
522,31	2368,80
522,77	2368,70
523,23	2354,60
523,69	2388,10
524,15	2369,90
524,61	2360,20
525,07	2389,60
525,53	2375,80
525,99	2373,60
526,45	2382,00
526,91	2372,30
527,37	2368,20
527,83	2363,30
528,29	2365,60
528,75	2375,70
529,21	2372,10
529,66	2365,80
530,12	2360,80
530,58	2372,70
531,04	2376,40
531,50	2354,60
531,96	2383,80
532,42	2371,20
532,88	2374,40
533,34	2368,50
533,80	2377,80
534,26	2376,40
534,72	2368,50
535,18	2369,80
535,64	2372,10
536,10	2388,10
536,56	2377,20
537,02	2391,00
537,48	2374,10
537,93	2390,20
538,39	2390,10
538,85	2400,60
539,31	2422,40
539,77	2414,10
540,23	2473,20
540,69	2422,70
541,15	2464,70
541,61	2477,80
542,07	2506,50
542,52	2565,80
542,98	2624,40
543,44	2673,60
543,90	2796,20
544,36	2873,10
544,82	3131,10
545,28	3902,30
545,74	8055,60
546,19	23694,50
546,65	37677,40
547,11	31064,80
547,57	11653,10
548,03	5003,90
548,49	3592,20
548,95	3036,80
549,40	2790,70
549,86	2653,20
550,32	2607,30
550,78	2530,40
551,24	2489,90
551,70	2488,10
552,16	2459,40
552,61	2470,00
553,07	2440,50
553,53	2421,50
553,99	2425,70
554,45	2407,30
554,90	2400,60
555,36	2406,20
555,82	2396,90
556,28	2409,90
556,74	2388,60
557,19	2399,00
557,65	2371,00
558,11	2381,00
558,57	2400,70
559,03	2376,80
559,48	2379,80
559,94	2374,20
560,40	2375,80
560,86	2367,50
561,32	2372,90
561,77	2373,00
562,23	2372,30
562,69	2373,30
563,15	2372,00
563,60	2374,00
564,06	2388,40
564,52	2360,00
564,98	2377,60
565,43	2366,90
565,89	2370,10
566,35	2371,70
566,81	2383,80
567,26	2370,40
567,72	2366,30
568,18	2376,10
568,64	2374,40
569,09	2368,10
569,55	2373,50
570,01	2383,30
570,47	2376,20
570,92	2374,80
571,38	2385,10
571,84	2382,50
572,29	2377,90
572,75	2386,80
573,21	2386,00
573,67	2382,70
574,12	2388,30
574,58	2407,80
575,04	2430,60
575,49	2448,50
575,95	2472,20
576,41	2658,80
576,86	3618,10
577,32	6525,00
577,78	7253,90
578,23	4610,90
578,69	3405,20
579,15	4922,50
579,60	7798,80
580,06	6613,10
580,52	3765,80
580,97	2818,20
581,43	2585,20
581,89	2500,10
582,34	2456,30
582,80	2432,30
583,26	2410,20
583,71	2409,40
584,17	2416,10
584,63	2408,50
585,08	2398,40
585,54	2393,90
586,00	2420,00
586,45	2387,90
586,91	2390,90
587,36	2396,00
587,82	2406,20
588,28	2414,30
588,73	2392,30
589,19	2398,10
589,64	2381,90
590,10	2377,50
590,56	2386,40
591,01	2390,00
591,47	2376,70
591,92	2370,10
592,38	2394,60
592,84	2378,20
593,29	2386,10
593,75	2384,30
594,20	2397,90
594,66	2377,30
595,11	2381,40
595,57	2385,20
596,03	2371,20
596,48	2369,10
596,94	2385,10
597,39	2381,20
597,85	2382,10
598,30	2374,60
598,76	2361,60
599,22	2373,40
599,67	2394,60
600,13	2369,50
600,58	2380,80
601,04	2392,30
601,49	2374,60
601,95	2379,50
602,40	2359,50
602,86	2400,40
603,31	2363,70
603,77	2367,70
604,22	2363,10
604,68	2354,10
605,13	2379,10
605,59	2362,00
606,04	2371,00
606,50	2365,00
606,95	2357,40
607,41	2371,50
607,86	2370,30
608,32	2379,80
608,77	2379,00
609,23	2381,10
609,68	2412,20
610,14	2406,00
610,59	2418,90
611,05	2453,60
611,50	2540,10
611,96	2596,70
612,41	2599,40
612,87	2511,00
613,32	2461,70
613,78	2476,20
614,23	2424,70
614,69	2416,60
615,14	2411,20
615,59	2413,70
616,05	2403,60
616,50	2395,90
616,96	2382,30
617,41	2384,30
617,87	2382,80
618,32	2390,20
618,77	2372,20
619,23	2375,20
619,68	2378,80
620,14	2388,80
620,59	2381,60
621,05	2393,00
621,50	2396,80
621,95	2379,00
622,41	2390,40
622,86	2394,00
623,32	2392,70
623,77	2381,30
624,22	2371,70
624,68	2389,20
625,13	2368,30
625,59	2372,20
626,04	2377,70
626,49	2364,80
626,95	2374,40
627,40	2370,00
627,85	2367,60
628,31	2380,10
628,76	2378,80
629,22	2362,50
629,67	2374,50
630,12	2378,70
630,58	2370,10
631,03	2388,40
631,48	2388,90
631,94	2394,20
632,39	2383,20
632,84	2382,60
633,30	2361,70
633,75	2364,10
634,20	2358,00
634,66	2359,90
635,11	2355,90
635,56	2356,50
636,02	2357,90
636,47	2353,20
636,92	2363,40
637,38	2358,30
637,83	2352,40
638,28	2373,80
638,74	2368,60
639,19	2354,10
639,64	2360,00
640,09	2355,60
640,55	2350,70
641,00	2362,80
641,45	2373,40
641,91	2342,60
642,36	2353,90
642,81	2358,30
643,26	2347,00
643,72	2353,70
644,17	2369,50
644,62	2353,30
645,07	2351,20
645,53	2354,90
645,98	2348,00
646,43	2363,00
646,89	2363,50
647,34	2363,80
647,79	2371,40
648,24	2358,20
648,70	2359,60
649,15	2352,50
649,60	2372,70
650,05	2362,60
650,50	2407,50
650,96	2357,80
651,41	2363,10
651,86	2359,40
652,31	2364,30
652,77	2354,30
653,22	2361,20
653,67	2358,70
654,12	2352,80
654,57	2366,40
655,03	2369,70
655,48	2358,10
655,93	2351,00
656,38	2365,80
656,83	2350,30
657,29	2359,90
657,74	2369,10
658,19	2372,20
658,64	2351,80
659,09	2358,00
659,54	2344,70
660,00	2405,80
660,45	2353,10
660,90	2370,00
661,35	2361,80
661,80	2350,50
662,25	2359,90
662,71	2357,80
663,16	2347,20
663,61	2368,20
664,06	2358,90
664,51	2357,60
664,96	2355,80
665,41	2351,00
665,87	2360,60
666,32	2346,70
666,77	2360,50
667,22	2362,10
667,67	2393,20
668,12	2381,30
668,57	2355,60
669,02	2366,00
669,48	2353,30
669,93	2378,60
670,38	2342,70
670,83	2357,00
671,28	2372,50
671,73	2364,10
672,18	2382,60
672,63	2390,40
673,08	2356,10
673,53	2357,10
673,99	2373,10
674,44	2393,50
674,89	2358,50
675,34	2363,10
675,79	2342,40
676,24	2349,00
676,69	2361,00
677,14	2357,10
677,59	2357,80
678,04	2354,70
678,49	2388,00
678,94	2352,10
679,39	2355,20
679,84	2361,40
680,29	2352,80
680,74	2357,20
681,20	2360,80
681,65	2344,60
682,10	2340,70
682,55	2359,50
683,00	2361,20
683,45	2366,60
683,90	2365,60
684,35	2359,70
684,80	2374,60
685,25	2358,80
685,70	2366,00
686,15	2361,00
686,60	2354,10
687,05	2349,10
687,50	2356,60
687,95	2358,80
688,40	2359,30
688,85	2361,60
689,30	2393,10
689,75	2364,60
690,20	2347,10
690,65	2358,60
691,10	2394,80
691,55	2405,60
692,00	2382,20
692,45	2352,90
692,90	2363,90
693,34	2358,60
693,79	2368,30
694,24	2368,60
694,69	2361,30
695,14	2360,70
695,59	2413,70
696,04	2366,50
696,49	2386,10
696,94	2509,40
697,39	2507,40
697,84	2415,40
698,29	2380,40
698,74	2359,30
699,19	2364,30
699,64	2367,60
700,09	2349,00
700,53	2352,40
700,98	2368,00
701,43	2368,70
701,88	2397,70
702,33	2348,20
702,78	2372,20
703,23	2354,20
703,68	2356,80
704,13	2360,30
704,58	2358,00
705,02	2358,80
705,47	2374,60
705,92	2372,50
706,37	2376,40
706,82	2367,30
707,27	2407,90
707,72	2400,40
708,17	2379,00
708,61	2383,50
709,06	2392,00
709,51	2383,10
709,96	2376,50
710,41	2368,60
710,86	2363,90
711,31	2361,60
711,75	2368,30
712,20	2366,90
712,65	2371,70
713,10	2362,80
713,55	2391,50
714,00	2366,20
714,44	2363,60
714,89	2375,40
715,34	2376,50
715,79	2360,70
716,24	2361,20
716,69	2351,80
717,13	2357,80
717,58	2343,20
718,03	2345,10
718,48	2361,10
718,93	2369,20
719,37	2354,90
719,82	2342,70
720,27	2356,50
720,72	2359,80
721,17	2349,90
721,61	2358,60
722,06	2349,50
722,51	2362,50
722,96	2351,60
723,40	2346,50
723,85	2344,50
724,30	2355,50
724,75	2345,10
725,19	2358,10
725,64	2344,50
726,09	2359,40
726,54	2356,00
726,98	2354,80
727,43	2390,60
727,88	2386,80
728,33	2406,70
728,77	2376,70
729,22	2359,90
729,67	2366,00
730,12	2346,40
730,56	2366,40
731,01	2344,70
731,46	2358,20
731,90	2354,90
732,35	2362,00
732,80	2355,70
733,25	2350,00
733,69	2359,80
734,14	2357,90
734,59	2347,40
735,03	2360,20
735,48	2362,40
735,93	2358,40
736,37	2392,10
736,82	2349,00
737,27	2363,60
737,71	2365,20
738,16	2366,80
738,61	2386,60
739,05	2416,10
739,50	2402,60
739,95	2363,20
740,39	2369,30
740,84	2366,60
741,29	2349,00
741,73	2365,20
742,18	2363,70
742,63	2354,90
743,07	2359,30
743,52	2345,30
743,97	2346,40
744,41	2354,20
744,86	2369,60
745,31	2369,80
745,75	2366,20
746,20	2363,90
746,64	2372,80
747,09	2338,40
747,54	2347,70
747,98	2344,50
748,43	2360,30
748,87	2356,50
749,32	2354,70
749,77	2365,30
750,21	2409,40
750,66	2438,70
751,10	2482,60
751,55	2450,10
752,00	2434,90
752,44	2416,90
752,89	2383,90
753,33	2386,20
753,78	2356,30
754,22	2354,70
754,67	2348,40
755,12	2354,10
755,56	2347,00
756,01	2352,30
756,45	2357,90
756,90	2366,40
757,34	2353,90
757,79	2368,40
758,23	2359,90
758,68	2357,90
759,13	2356,60
759,57	2355,90
760,02	2348,70
760,46	2359,90
760,91	2356,70
761,35	2364,50
761,80	2367,10
762,24	2376,50
762,69	2368,50
763,13	2390,00
763,58	2559,00
764,02	2833,20
764,47	2775,00
764,91	2559,20
765,36	2415,20
765,80	2390,20
766,25	2363,60
766,69	2355,00
767,14	2355,10
767,58	2361,10
768,03	2364,80
768,47	2361,00
768,92	2366,20
769,36	2354,60
769,81	2378,60
770,25	2351,30
770,70	2360,70
771,14	2360,40
771,58	2353,10
772,03	2391,70
772,47	2473,40
772,92	2602,00
773,36	2568,20
773,81	2467,70
774,25	2388,80
774,70	2354,70
775,14	2366,40
775,58	2355,90
776,03	2358,50
776,47	2358,60
776,92	2357,80
777,36	2353,80
777,81	2351,80
778,25	2356,70
778,69	2361,30
779,14	2351,10
779,58	2359,40
780,03	2386,30
780,47	2367,50
780,91	2356,00
781,36	2367,90
781,80	2360,10
782,24	2344,50
782,69	2359,40
783,13	2352,10
783,58	2352,00
784,02	2363,60
784,46	2361,10
784,91	2356,60
785,35	2354,30
785,79	2354,10
786,24	2351,20
786,68	2361,20
787,13	2367,90
787,57	2368,60
788,01	2344,60
788,46	2347,00
788,90	2360,70
789,34	2379,60
789,79	2353,30
790,23	2347,00
790,67	2360,00
791,12	2342,70
791,56	2350,40
792,00	2364,50
792,45	2355,40
792,89	2355,40
793,33	2354,40
793,78	2406,60
794,22	2377,00
794,66	2380,40
795,10	2438,50
795,55	2445,20
795,99	2420,40
796,43	2387,30
796,88	2361,10
797,32	2361,70
797,76	2354,90
798,20	2350,00
798,65	2357,60
799,09	2370,60
799,53	2361,60
799,98	2357,40
800,42	2395,80
800,86	2417,10
801,30	2423,30
801,75	2466,80
802,19	2440,80
802,63	2412,40
803,07	2393,40
803,52	2382,70
803,96	2372,30
804,40	2363,20
804,84	2356,60
805,29	2351,80
805,73	2377,20
806,17	2380,10
806,61	2376,00
807,05	2369,00
807,50	2376,60
807,94	2357,20
808,38	2358,30
808,82	2354,30
809,27	2368,70
809,71	2370,70
810,15	2379,20
810,59	2440,70
811,03	2475,30
811,47	2587,80
811,92	2678,50
812,36	2640,10
812,80	2547,60
813,24	2427,60
813,68	2405,60
814,13	2378,30
814,57	2368,90
815,01	2375,10
815,45	2369,10
815,89	2361,80
816,33	2352,70
816,78	2349,80
817,22	2358,60
817,66	2363,50
818,10	2358,80
818,54	2372,20
818,98	2355,90
819,42	2363,10
819,87	2372,30
820,31	2350,60
820,75	2363,30
821,19	2354,10
821,63	2355,20
822,07	2349,70
822,51	2373,40
822,95	2351,90
823,40	2360,70
823,84	2362,30
824,28	2344,30
824,72	2364,70
825,16	2363,70
825,60	2370,00
826,04	2391,60
826,48	2468,60
826,92	2506,10
827,36	2524,20
827,81	2480,10
828,25	2404,10
828,69	2384,60
829,13	2363,00
829,57	2375,50
830,01	2367,60
830,45	2353,50
830,89	2375,70
831,33	2359,10
831,77	2379,90
832,21	2366,20
832,65	2364,80
833,09	2346,40
833,53	2357,70
833,97	2355,50
834,41	2370,60
834,85	2359,70
835,29	2356,60
835,74	2350,70
836,18	2367,40
836,62	2355,20
837,06	2363,30
837,50	2350,10
837,94	2373,40
838,38	2353,10
838,82	2353,50
839,26	2366,20
839,70	2357,30
840,14	2388,30
840,58	2417,30
841,02	2446,40
841,46	2456,70
841,90	2453,90
842,34	2451,20
842,78	2460,10
843,22	2475,00
843,66	2479,30
844,10	2398,70
844,53	2383,10
844,97	2367,40
845,41	2355,90
845,85	2366,50
846,29	2360,40
846,73	2363,10
847,17	2356,70
847,61	2348,10
848,05	2360,20
848,49	2354,00
848,93	2351,80
849,37	2350,10
849,81	2363,50
850,25	2366,20
850,69	2364,00
851,13	2359,20
851,57	2371,60
852,01	2373,50
852,44	2402,30
852,88	2413,30
853,32	2400,40
853,76	2365,10
854,20	2367,00
854,64	2348,30
855,08	2365,20
855,52	2347,70
855,96	2354,10
856,40	2365,30
856,83	2372,10
857,27	2351,70
857,71	2357,50
858,15	2358,50
858,59	2346,30
859,03	2369,90
859,47	2340,20
859,91	2347,90
860,34	2352,10
860,78	2354,80
861,22	2359,20
861,66	2363,60
862,10	2348,50
862,54	2352,90
862,98	2361,60
863,41	2346,20
863,85	2349,70
864,29	2370,40
864,73	2344,80
865,17	2354,30
865,61	2356,80
866,04	2340,60
866,48	2353,30
866,92	2346,00
867,36	2365,40
867,80	2356,40
868,23	2363,00
868,67	2354,20
869,11	2353,90
869,55	2363,20
869,99	2357,30
870,42	2370,00
870,86	2381,60
871,30	2342,10
871,74	2353,10
872,18	2356,80
872,61	2350,70
873,05	2353,70
873,49	2364,70
873,93	2354,70
874,36	2361,40
874,80	2365,60
875,24	2345,50
875,68	2344,20
876,11	2363,60
876,55	2339,30
876,99	2355,10
877,43	2353,50
877,86	2353,90
878,30	2356,90
878,74	2359,70
879,18	2358,20
879,61	2352,10
880,05	2375,50
880,49	2346,70
880,93	2344,80
881,36	2347,30
881,80	2359,30
882,24	2362,50
882,67	2354,90
883,11	2349,80
883,55	2353,30
883,99	2353,80
884,42	2344,50
884,86	2360,70
885,30	2356,40
885,73	2358,10
886,17	2363,50
886,61	2352,30
887,04	2348,10
887,48	2376,50
887,92	2347,20
888,35	2344,60
888,79	2352,30
889,23	2351,50
889,66	2389,40
890,10	2343,50
890,54	2359,40
890,97	2352,70
891,41	2362,70
891,85	2357,40
892,28	2343,90
892,72	2356,80
893,16	2352,90
893,59	2348,00
894,03	2351,20
894,46	2359,10
894,90	2349,20
895,34	2358,90
895,77	2352,70
896,21	2346,50
896,65	2355,50
897,08	2362,80
897,52	2347,50
897,95	2343,60
898,39	2349,00
898,83	2359,70
899,26	2368,00
899,70	2350,80
900,13	2349,00
900,57	2349,70
901,01	2363,20
901,44	2358,80
901,88	2348,80
902,31	2376,00
902,75	2373,70
903,18	2348,20
903,62	2354,90
904,06	2377,20
904,49	2355,40
904,93	2363,70
905,36	2355,90
905,80	2357,30
906,23	2348,40
906,67	2373,20
907,10	2359,90
907,54	2371,00
907,97	2362,20
908,41	2358,20
908,84	2368,90
909,28	2376,80
909,72	2359,30
910,15	2353,30
910,59	2371,20
911,02	2382,00
911,46	2397,20
911,89	2480,30
912,33	2568,40
912,76	2527,30
913,20	2669,30
913,63	2577,40
914,07	2442,00
914,50	2388,10
914,94	2363,10
915,37	2364,50
915,81	2366,80
916,24	2362,00
916,67	2372,70
917,11	2357,10
917,54	2373,00
917,98	2359,60
918,41	2367,30
918,85	2356,70
919,28	2365,00
919,72	2356,90
920,15	2361,80
920,59	2374,00
921,02	2364,80
921,46	2384,60
921,89	2380,60
922,32	2396,70
922,76	2376,30
923,19	2395,60
923,63	2405,00
924,06	2399,80
924,50	2373,90
924,93	2349,80
925,36	2371,90
925,80	2352,60
926,23	2366,80
926,67	2377,30
927,10	2354,30
927,53	2363,60
927,97	2344,00
928,40	2381,70
928,84	2357,60
929,27	2347,10
929,70	2368,80
930,14	2351,20
930,57	2360,40
931,00	2362,30
931,44	2349,30
931,87	2359,80
932,31	2338,10
932,74	2364,00
933,17	2366,60
933,61	2387,60
934,04	2350,00
934,47	2365,80
934,91	2368,50
935,34	2366,80
935,77	2363,40
936,21	2345,60
936,64	2356,20
937,07	2347,60
937,51	2360,10
937,94	2348,50
938,37	2362,00
938,81	2348,10
939,24	2346,20
939,67	2361,20
940,11	2340,90
940,54	2356,40
940,97	2363,50
941,41	2385,00
941,84	2352,90
942,27	2364,50
942,70	2349,40
943,14	2350,70
943,57	2364,50
944,00	2343,70
944,44	2341,50
944,87	2365,00
945,30	2362,70
945,73	2362,90
946,17	2348,30
946,60	2353,20
947,03	2354,60
947,46	2364,50
947,90	2351,60
948,33	2355,40
948,76	2360,70
949,19	2342,90
949,63	2346,60
950,06	2348,20
950,49	2384,40
950,92	2372,50
951,36	2349,20
951,79	2350,20
952,22	2359,70
952,65	2345,30
953,08	2363,20
953,52	2354,30
953,95	2374,70
954,38	2345,40
954,81	2347,80
955,25	2353,20
955,68	2352,40
956,11	2350,90
956,54	2364,60
956,97	2348,70
957,40	2358,00
957,84	2397,60
958,27	2346,10
958,70	2358,70
959,13	2357,80
959,56	2351,10
960,00	2349,60
960,43	2349,70
960,86	2338,50
961,29	2351,80
961,72	2365,00
962,15	2366,60
962,58	2364,20
963,02	2370,80
963,45	2352,50
963,88	2365,90
964,31	2359,70
964,74	2361,80
965,17	2382,60
965,60	2389,40
966,04	2394,80
966,47	2408,40
966,90	2404,70
967,33	2386,80
967,76	2366,20
968,19	2360,60
968,62	2365,20
969,05	2403,50
969,48	2365,20
969,92	2357,90
970,35	2360,00
970,78	2349,30
971,21	2346,70
971,64	2364,20
972,07	2351,20
972,50	2354,20
972,93	2345,50
973,36	2348,50
973,79	2352,40
974,22	2362,80
974,65	2352,20
975,09	2358,40
975,52	2363,20
975,95	2357,90
976,38	2347,20
976,81	2347,40
977,24	2357,50
977,67	2344,70
978,10	2363,00
978,53	2354,00
978,96	2351,70
979,39	2352,00
979,82	2352,80
980,25	2363,10
980,68	2355,40
981,11	2350,00
981,54	2357,20
981,97	2361,00
982,40	2355,10
982,83	2354,10
983,26	2347,00
983,69	2357,00
984,12	2349,40
984,55	2362,00
984,98	2365,00
985,41	2353,10
985,84	2343,40
986,27	2351,90
986,70	2358,10
987,13	2352,40
987,56	2343,60
987,99	2356,20
988,42	2348,20
988,85	2359,80
989,28	2357,00
989,71	2354,10
990,14	2354,20
990,57	2351,30
991,00	2362,50
991,43	2357,10
991,86	2359,50
992,28	2375,00
992,71	2345,90
993,14	2352,20
993,57	2354,10
994,00	2355,00
994,43	2358,00
994,86	2364,00
995,29	2363,90
995,72	2358,70
996,15	2364,30
996,58	2352,50
997,01	2352,70
997,43	2350,70
997,86	2372,90
998,29	2370,30
998,72	2357,40
999,15	2366,30
999,58	2355,50
1000,01	2376,90
1000,44	2366,00
1000,87	2371,20
1001,29	2379,60
1001,72	2359,10
1002,15	2372,50
1002,58	2377,00
1003,01	2377,20
1003,44	2378,30
1003,87	2376,50
1004,29	2380,80
1004,72	2368,80
1005,15	2384,40
1005,58	2386,90
1006,01	2403,70
1006,44	2385,20
1006,87	2389,30
1007,29	2406,80
1007,72	2402,70
1008,15	2405,80
1008,58	2405,70
1009,01	2423,80
1009,43	2432,00
1009,86	2482,00
1010,29	2465,30
1010,72	2474,30
1011,15	2479,00
1011,57	2501,60
1012,00	2536,90
1012,43	2573,30
1012,86	2700,30
1013,29	3035,50
1013,71	3050,40
1014,14	2944,10
1014,57	3335,00
1015,00	3382,10
1015,43	2930,10
1015,85	2728,40
1016,28	2601,00
1016,71	2546,70
1017,14	2504,30
1017,56	2497,30
1017,99	2471,10
1018,42	2654,90
1018,85	2442,40
1019,27	2427,30
1019,70	2462,20
1020,13	2432,40
1020,56	2425,90
1020,98	2413,10
1021,41	2402,70
1021,84	2404,20
1022,26	2399,70
1022,69	2394,60
1023,12	2385,20
1023,55	2424,00
1023,97	2392,80
1024,40	2387,60
1024,83	2380,20
1025,25	2378,40
1025,68	2372,70
1026,11	2379,10
1026,53	2362,20
1026,96	2355,30
1027,39	2392,20
1027,82	2375,20
1028,24	2367,90
1028,67	2363,00
1029,10	2365,70
1029,52	2361,10
1029,95	2385,00
1030,38	2365,30
1030,80	2363,50
1031,23	2365,20
1031,65	2373,60
1032,08	2348,70
1032,51	2361,40
1032,93	2365,70
1033,36	2358,10
1033,79	2371,70
1034,21	2348,50
1034,64	2354,30
1035,07	2358,90
1035,49	2365,70
1035,92	2354,60
1036,34	2378,10
1036,77	2351,20
1037,20	2351,70
1037,62	2364,10
1038,05	2348,60
1038,47	2364,10
1038,90	2365,80
1039,33	2361,30
1039,75	2369,10
1040,18	2369,90
1040,60	2352,40
1041,03	2353,30
1041,46	2358,60
1041,88	2355,10
1042,31	2371,80
1042,73	2363,40
1043,16	2362,50
1043,58	2371,60
1044,01	2354,30
1044,44	2361,10
1044,86	2348,00
1045,29	2358,10
1045,71	2350,70
1046,14	2351,10
1046,56	2359,10
1046,99	2364,00
1047,41	2346,80
1047,84	2362,40
1048,26	2369,70
1048,69	2349,30
1049,12	2369,30
1049,54	2361,70
1049,97	2368,20
1050,39	2356,00
1050,82	2349,30
1051,24	2360,50
1051,67	2366,30
1052,09	2379,40
1052,52	2365,90
1052,94	2353,90
1053,37	2362,50
1053,79	2342,90
1054,22	2361,90
1054,64	2340,00
1055,07	2356,40
1055,49	2350,60
1055,91	2358,60
1056,34	2357,40
1056,76	2376,10
1057,19	2367,70
1057,61	2363,90
1058,04	2361,90
1058,46	2395,40
1058,89	2346,10
1059,31	2358,50
1059,74	2362,30
1060,16	2355,60
1060,58	2354,70
1061,01	2352,40
1061,43	2362,80
1061,86	2358,50
1062,28	2349,70
1062,71	2363,60
1063,13	2372,60
1063,55	2358,80
1063,98	2357,30
1064,40	2348,90
1064,83	2370,00
1065,25	2363,80
1065,67	2351,30
1066,10	2353,70
1066,52	2346,10
1066,95	2362,60
1067,37	2360,20
1067,79	2354,00
1068,22	2361,40
1068,64	2352,90
1069,07	2377,30
1069,49	2360,20
1069,91	2352,60
1070,34	2341,30
1070,76	2363,20
1071,18	2367,80
1071,61	2366,40
1072,03	2356,20
1072,45	2364,40
1072,88	2352,30
1073,30	2346,10
1073,72	2351,20
1074,15	2365,10
1074,57	2350,40
1074,99	2349,00
1075,42	2352,80
1075,84	2353,70
1076,26	2357,70
1076,69	2349,90
1077,11	2348,70
1077,53	2351,90
1077,96	2368,40
1078,38	2356,10
1078,80	2362,20
1079,23	2366,30
1079,65	2336,50
1080,07	2360,50
1080,50	2356,30
1080,92	2356,50
1081,34	2361,30
1081,76	2356,40
1082,19	2353,50
1082,61	2360,90
1083,03	2355,20
1083,45	2355,80
1083,88	2356,00
1084,30	2354,50
1084,72	2366,00
1085,14	2354,90
1085,57	2351,70
1085,99	2371,20
1086,41	2349,70
1086,83	2357,10
1087,26	2357,90
1087,68	2343,70
1088,10	2363,50
1088,52	2682,40
1088,95	2359,50
1089,37	2351,50
1089,79	2355,30
1090,21	2353,60
1090,64	2364,00
1091,06	2353,40
1091,48	2348,70
1091,90	2357,10
1092,32	2349,20
1092,75	2347,40
1093,17	2355,30
1093,59	2349,30
1094,01	2359,20
1094,43	2353,40
1094,85	2354,20
1095,28	2355,00
1095,70	2353,40
1096,12	2348,60
1096,54	2357,00
1096,96	2356,40
1097,39	2348,20
1097,81	2358,30
1098,23	2343,70
1098,65	2361,10
1099,07	2362,80
1099,49	2365,50
1099,91	2354,60
1100,34	2357,50
1100,76	2348,70
1101,18	2350,20
1101,60	2343,80
1102,02	2354,90
1102,44	2345,20
1102,86	2348,20
1103,28	2352,50
1103,71	2348,90
1104,13	2352,30
1104,55	2428,90
1104,97	2362,90
1105,39	2341,80
1105,81	2359,00
1106,23	2357,80
1106,65	2346,60
1107,07	2356,20
1107,49	2336,00
1107,92	2341,80
1108,34	2364,90
1108,76	2344,50
1109,18	2357,90
1109,60	2355,00
1110,02	2351,60
1110,44	2343,80
1110,86	2349,00
1111,28	2338,60
1111,70	2346,00
1112,12	2343,60
1112,54	2341,40
1112,96	2339,00
1113,38	2349,70
1113,80	2341,40
1114,22	2343,40
1114,64	2353,20
1115,06	2357,30
1115,49	2344,10
1115,91	2350,70
1116,33	2342,80
1116,75	2351,20
1117,17	2352,70
1117,59	2342,20
1118,01	2335,30
1118,43	2187,60
1118,85	2190,60
1119,27	2192,40
1119,69	2191,80
>>>>>End Processed Spectral Data<<<<<
