SpectraSuite Data File
++++++++++++++++++++++++++++++++++++
Date: Tue Oct 11 14:33:03 EEST 2016
User: OO Maya
Dark Spectrum Present: No
Reference Spectrum Present: No
Number of Sampled Component Spectra: 1
Spectrometers: MAYP11278
Integration Time (usec): 7000000 (MAYP11278)
Spectra Averaged: 3 (MAYP11278)
Boxcar Smoothing: 0 (MAYP11278)
Correct for Electrical Dark: No (MAYP11278)
Strobe/Lamp Enabled: No (MAYP11278)
Correct for Detector Non-linearity: Yes (MAYP11278)
Correct for Stray Light: No (MAYP11278)
Number of Pixels in Processed Spectrum: 2068
>>>>>Begin Processed Spectral Data<<<<<
187,82	2264,49
188,30	2194,65
188,78	2162,72
189,26	2164,39
189,73	5335,31
190,21	5691,30
190,69	5770,57
191,17	5988,77
191,64	6282,67
192,12	6046,41
192,60	5932,14
193,07	5757,92
193,55	6034,75
194,03	6009,76
194,51	6127,71
194,98	5973,45
195,46	6351,33
195,94	5877,50
196,42	6047,08
196,89	6888,80
197,37	6017,76
197,85	5861,85
198,32	5966,12
198,80	5844,52
199,28	6153,71
199,76	6264,68
200,23	5966,78
200,71	5990,11
201,19	6247,68
201,66	6279,01
202,14	6232,68
202,62	5763,91
203,09	6210,02
203,57	5818,54
204,05	6327,67
204,53	6483,00
205,00	5894,16
205,48	5923,14
205,96	6518,33
206,43	5934,80
206,91	6170,70
207,39	6884,80
207,86	6150,37
208,34	6248,68
208,82	6053,74
209,29	6413,00
209,77	6260,68
210,25	6093,39
210,72	6054,74
211,20	6208,69
211,68	6089,06
212,15	5932,14
212,63	6643,36
213,11	6247,68
213,58	6018,09
214,06	6674,37
214,53	6236,68
215,01	6609,35
215,49	6253,01
215,96	6415,99
216,44	6337,67
216,92	6263,68
217,39	5990,11
217,87	6114,72
218,35	6545,00
218,82	5772,91
219,30	5913,48
219,77	5955,46
220,25	6155,04
220,73	6848,44
221,20	6010,76
221,68	6385,66
222,15	5977,78
222,63	6414,66
223,11	6013,10
223,58	6368,33
224,06	6057,08
224,53	6042,75
225,01	5869,17
225,49	6074,40
225,96	5872,17
226,44	6117,38
226,91	6398,66
227,39	6096,39
227,87	6439,66
228,34	6312,00
228,82	6291,67
229,29	6074,07
229,77	6079,40
230,24	6053,41
230,72	6330,00
231,20	6420,99
231,67	6163,37
232,15	6165,70
232,62	5859,85
233,10	6161,04
233,57	6280,34
234,05	7288,15
234,53	6244,35
235,00	5981,11
235,48	5987,77
235,95	5873,51
236,43	6432,66
236,90	6800,75
237,38	6057,41
237,85	6257,01
238,33	6248,68
238,80	6228,69
239,28	6114,72
239,75	5856,52
240,23	6367,33
240,71	6509,67
241,18	6229,35
241,66	6184,70
242,13	6452,33
242,61	6496,00
243,08	5879,83
243,56	5983,78
244,03	6372,33
244,51	6604,01
244,98	6129,38
245,46	6566,01
245,93	20038,43
246,41	5828,87
246,88	6290,34
247,36	6203,69
247,83	6243,02
248,31	6310,34
248,78	5794,56
249,26	6261,01
249,73	6464,33
250,21	6282,34
250,68	6631,69
251,16	6226,02
251,63	6819,76
252,10	6630,02
252,58	6080,73
253,05	6612,02
253,53	6272,68
254,00	6170,70
254,48	6263,01
254,95	6344,33
255,43	6495,66
255,90	6056,08
256,38	6355,33
256,85	6441,00
257,33	6526,33
257,80	7247,44
258,27	6261,34
258,75	6104,06
259,22	6363,33
259,70	6441,33
260,17	6762,40
260,65	6291,67
261,12	6130,38
261,59	6575,01
262,07	6104,72
262,54	6359,33
263,02	6225,69
263,49	5856,18
263,97	6433,66
264,44	6567,67
264,91	6112,72
265,39	6268,34
265,86	6402,33
266,34	6439,33
266,81	6197,69
267,28	6251,35
267,76	6418,33
268,23	6414,99
268,71	5853,52
269,18	6062,41
269,65	6117,38
270,13	6462,00
270,60	6604,35
271,08	6225,02
271,55	6293,67
272,02	5907,48
272,50	5997,10
272,97	5792,89
273,44	6297,34
273,92	7441,02
274,39	6522,67
274,87	6562,34
275,34	6192,03
275,81	6222,02
276,29	6386,00
276,76	6542,00
277,23	5989,77
277,71	6196,03
278,18	5988,77
278,65	7770,91
279,13	6193,03
279,60	6168,37
280,07	7589,92
280,55	6568,01
281,02	7354,23
281,50	6154,37
281,97	6663,70
282,44	6243,68
282,91	6285,67
283,39	6481,66
283,86	6081,73
284,33	6036,08
284,81	6525,33
285,28	6274,68
285,75	6404,00
286,23	6394,33
286,70	5984,11
287,17	6460,00
287,65	6836,77
288,12	6237,02
288,59	6526,67
289,07	5843,19
289,54	6746,06
290,01	6096,39
290,48	6466,00
290,96	6137,38
291,43	6439,33
291,90	7009,55
292,38	6121,72
292,85	6594,68
293,32	6187,36
293,79	6469,66
294,27	6480,00
294,74	6164,70
295,21	6364,66
295,69	6473,33
296,16	6920,15
296,63	6895,80
297,10	6538,00
297,58	6455,00
298,05	6456,33
298,52	6214,36
298,99	6842,77
299,47	6277,67
299,94	6462,66
300,41	6208,36
300,88	6654,36
301,36	6647,03
301,83	6653,36
302,30	6192,69
302,77	6701,71
303,25	6702,38
303,72	6308,34
304,19	6428,99
304,66	6318,34
305,13	6693,37
305,61	6742,72
306,08	6698,37
306,55	6948,84
307,02	6757,73
307,49	6917,82
307,97	7137,66
308,44	7031,57
308,91	7479,41
309,38	7655,70
309,86	7647,01
310,33	7864,10
310,80	8341,65
311,27	8189,89
311,74	8782,16
312,21	8697,17
312,69	9621,80
313,16	9037,20
313,63	9303,78
314,10	9673,43
314,57	9701,93
315,05	9865,58
315,52	10268,28
315,99	10417,71
316,46	11016,01
316,93	11741,29
317,40	11795,89
317,88	12567,00
318,35	12093,34
318,82	12510,93
319,29	12347,81
319,76	13312,76
320,23	14464,63
320,70	14382,07
321,18	13876,66
321,65	13400,13
322,12	13506,49
322,59	14166,43
323,06	13961,46
323,53	15412,33
324,00	14789,97
324,48	15559,59
324,95	15978,55
325,42	16920,86
325,89	18171,40
326,36	19146,69
326,83	19930,24
327,30	20062,63
327,77	19895,00
328,24	19990,73
328,72	20775,19
329,19	21720,46
329,66	21892,09
330,13	20926,95
330,60	20249,02
331,07	19347,41
331,54	19588,64
332,01	19260,49
332,48	21106,18
332,95	21390,98
333,43	21693,72
333,90	22415,83
334,37	22992,23
334,84	24228,06
335,31	26205,61
335,78	24493,89
336,25	23165,84
336,72	22188,30
337,19	22074,93
337,66	22925,31
338,13	23658,18
338,60	24704,57
339,07	24527,83
339,54	24356,75
340,01	25192,51
340,49	24736,08
340,96	24620,91
341,43	24884,90
341,90	24992,08
342,37	25364,99
342,84	25583,14
343,31	24851,63
343,78	23102,38
344,25	22221,69
344,72	23455,38
345,19	24877,90
345,66	24894,01
346,13	24329,47
346,60	24868,44
347,07	25545,61
347,54	24255,33
348,01	25179,20
348,48	25067,76
348,95	24430,91
349,42	25223,36
349,89	26856,07
350,36	27609,71
350,83	26729,77
351,30	26535,64
351,77	27015,14
352,24	25940,43
352,71	26100,57
353,18	27631,91
353,65	28717,11
354,12	28867,30
354,59	28946,84
355,06	28326,14
355,53	27687,96
356,00	26264,99
356,47	25430,21
356,94	23500,05
357,41	25049,54
357,88	23802,41
358,35	22550,18
358,82	24243,44
359,28	26938,06
359,75	28209,66
360,22	27892,48
360,69	26655,55
361,16	26117,78
361,63	26775,50
362,10	27407,08
362,57	29047,24
363,04	28718,53
363,51	29551,38
363,98	30194,64
364,45	29837,12
364,92	30700,02
365,39	32531,70
365,86	33651,18
366,32	33849,03
366,79	33310,32
367,26	37518,50
367,73	32605,80
368,20	32261,77
368,67	33166,55
369,14	33843,67
369,61	35137,79
370,08	34563,98
370,55	32784,33
371,02	36582,02
371,48	34344,73
371,95	31756,50
372,42	31118,56
372,89	31364,39
373,36	29618,29
373,83	29784,71
374,30	31071,33
374,77	31035,46
375,23	33313,88
375,70	36197,75
376,17	35890,56
376,64	36645,62
377,11	38557,14
377,58	40811,22
378,05	41800,34
378,51	40723,14
378,98	38345,40
379,45	37265,14
379,92	37503,38
380,39	39833,14
380,86	38744,06
381,33	36672,21
381,79	33558,36
382,26	31028,71
382,73	30480,42
383,20	30580,45
383,67	32171,70
384,14	34843,82
384,60	40319,58
385,07	39346,83
385,54	38193,25
386,01	37997,89
386,48	40553,92
386,94	39696,41
387,41	40176,92
387,88	41769,47
388,35	42265,82
388,82	44209,97
389,28	47366,76
389,75	50056,94
390,22	50227,20
390,69	50351,88
391,16	50905,17
391,62	48570,61
392,09	44466,16
392,56	40574,21
393,03	36052,74
393,50	36924,89
393,96	42783,03
394,43	48890,84
394,90	51472,29
395,37	52313,99
395,83	52159,69
396,30	45924,36
396,77	43807,31
397,24	49729,73
397,70	60570,31
398,17	68393,61
398,64	68393,61
399,11	68393,61
399,57	68393,61
400,04	68393,61
400,51	68393,61
400,98	68393,61
401,44	68393,61
401,91	68393,61
402,38	68393,61
402,84	68393,61
403,31	68393,61
403,78	68393,61
404,25	68393,61
404,71	68393,61
405,18	68393,61
405,65	68393,61
406,12	68393,61
406,58	68393,61
407,05	68393,61
407,52	68393,61
407,98	68393,61
408,45	68393,61
408,92	68393,61
409,38	68393,61
409,85	68393,61
410,32	68393,61
410,78	68393,61
411,25	68393,61
411,72	68393,61
412,18	68393,61
412,65	68393,61
413,12	68393,61
413,59	68393,61
414,05	68393,61
414,52	68393,61
414,98	68393,61
415,45	68393,61
415,92	68393,61
416,38	68393,61
416,85	68393,61
417,32	68393,61
417,78	68393,61
418,25	68393,61
418,72	68393,61
419,18	68393,61
419,65	68393,61
420,12	68393,61
420,58	68393,61
421,05	68393,61
421,51	68393,61
421,98	68393,61
422,45	68393,61
422,91	68393,61
423,38	68393,61
423,85	68393,61
424,31	68393,61
424,78	68393,61
425,24	68393,61
425,71	68393,61
426,18	68393,61
426,64	68393,61
427,11	68393,61
427,57	68393,61
428,04	68393,61
428,51	68393,61
428,97	68393,61
429,44	68393,61
429,90	68393,61
430,37	68393,61
430,83	68393,61
431,30	68393,61
431,77	68393,61
432,23	68393,61
432,70	68393,61
433,16	68393,61
433,63	68393,61
434,09	68393,61
434,56	68393,61
435,03	68393,61
435,49	68393,61
435,96	68393,61
436,42	68393,61
436,89	68393,61
437,35	68393,61
437,82	68393,61
438,28	68393,61
438,75	68393,61
439,21	68393,61
439,68	68393,61
440,14	68393,61
440,61	68393,61
441,07	68393,61
441,54	68393,61
442,00	68393,61
442,47	68393,61
442,94	68393,61
443,40	68393,61
443,87	68393,61
444,33	68393,61
444,80	68393,61
445,26	68393,61
445,73	68393,61
446,19	68393,61
446,65	68393,61
447,12	68393,61
447,58	68393,61
448,05	68393,61
448,51	68393,61
448,98	68393,61
449,44	68393,61
449,91	68393,61
450,37	68393,61
450,84	68393,61
451,30	68393,61
451,77	68393,61
452,23	68393,61
452,70	68393,61
453,16	68393,61
453,62	68393,61
454,09	68393,61
454,55	68393,61
455,02	68393,61
455,48	68393,61
455,95	68393,61
456,41	68393,61
456,88	68393,61
457,34	68393,61
457,80	68393,61
458,27	68393,61
458,73	68393,61
459,20	68393,61
459,66	68393,61
460,13	68393,61
460,59	68393,61
461,05	68393,61
461,52	68393,61
461,98	68393,61
462,45	68393,61
462,91	68393,61
463,37	68393,61
463,84	68393,61
464,30	68393,61
464,76	68393,61
465,23	68393,61
465,69	68393,61
466,16	68393,61
466,62	68393,61
467,08	68393,61
467,55	68393,61
468,01	68393,61
468,48	68393,61
468,94	68393,61
469,40	68393,61
469,87	68393,61
470,33	68393,61
470,79	68393,61
471,26	68393,61
471,72	68393,61
472,18	68393,61
472,65	68393,61
473,11	68393,61
473,57	68393,61
474,04	68393,61
474,50	68393,61
474,96	68393,61
475,43	68393,61
475,89	68393,61
476,35	68393,61
476,82	68393,61
477,28	68393,61
477,74	68393,61
478,21	68393,61
478,67	68393,61
479,13	68393,61
479,59	68393,61
480,06	68393,61
480,52	68393,61
480,98	68393,61
481,45	68393,61
481,91	68393,61
482,37	68393,61
482,84	68393,61
483,30	68393,61
483,76	68393,61
484,22	68393,61
484,69	68393,61
485,15	68393,61
485,61	68393,61
486,07	68393,61
486,54	68393,61
487,00	68393,61
487,46	68393,61
487,92	68393,61
488,39	68393,61
488,85	68393,61
489,31	68393,61
489,77	68393,61
490,24	68393,61
490,70	68393,61
491,16	68393,61
491,62	68393,61
492,09	68393,61
492,55	68393,61
493,01	68393,61
493,47	68393,61
493,94	68393,61
494,40	68393,61
494,86	68393,61
495,32	68393,61
495,78	68393,61
496,25	68393,61
496,71	68393,61
497,17	68393,61
497,63	68393,61
498,09	68393,61
498,56	68393,61
499,02	68393,61
499,48	68393,61
499,94	68393,61
500,40	68393,61
500,87	68393,61
501,33	68393,61
501,79	68393,61
502,25	68393,61
502,71	68393,61
503,17	68393,61
503,64	68393,61
504,10	68393,61
504,56	68393,61
505,02	68393,61
505,48	68393,61
505,94	68393,61
506,40	68393,61
506,87	68393,61
507,33	68393,61
507,79	68393,61
508,25	68393,61
508,71	68393,61
509,17	68393,61
509,63	68393,61
510,10	68393,61
510,56	68393,61
511,02	68393,61
511,48	68393,61
511,94	68393,61
512,40	68393,61
512,86	68393,61
513,32	68393,61
513,78	68393,61
514,25	68393,61
514,71	68393,61
515,17	68393,61
515,63	68393,61
516,09	68393,61
516,55	68393,61
517,01	68393,61
517,47	68393,61
517,93	68393,61
518,39	68393,61
518,85	68393,61
519,32	68393,61
519,78	68393,61
520,24	68393,61
520,70	68393,61
521,16	68393,61
521,62	68393,61
522,08	68393,61
522,54	68393,61
523,00	68393,61
523,46	68393,61
523,92	68393,61
524,38	68393,61
524,84	68393,61
525,30	68393,61
525,76	68393,61
526,22	68393,61
526,68	68393,61
527,14	68393,61
527,60	68393,61
528,06	68393,61
528,52	68393,61
528,98	68393,61
529,44	68393,61
529,90	68393,61
530,36	68393,61
530,82	68393,61
531,28	68393,61
531,74	68393,61
532,20	68393,61
532,66	68393,61
533,12	68393,61
533,58	68393,61
534,04	68393,61
534,50	68393,61
534,96	68393,61
535,42	68393,61
535,88	68393,61
536,34	68393,61
536,80	68393,61
537,26	68393,61
537,72	68393,61
538,18	68393,61
538,64	68393,61
539,10	68393,61
539,56	68393,61
540,02	68393,61
540,48	68393,61
540,94	68393,61
541,40	68393,61
541,86	68393,61
542,32	68393,61
542,78	68393,61
543,24	68393,61
543,69	68393,61
544,15	68393,61
544,61	68393,61
545,07	68393,61
545,53	68393,61
545,99	68393,61
546,45	68393,61
546,91	68393,61
547,37	68393,61
547,83	68393,61
548,29	68393,61
548,74	68393,61
549,20	68393,61
549,66	68393,61
550,12	68393,61
550,58	68393,61
551,04	68393,61
551,50	68393,61
551,96	68393,61
552,42	68393,61
552,87	68393,61
553,33	68393,61
553,79	68393,61
554,25	68393,61
554,71	68393,61
555,17	68393,61
555,63	68393,61
556,08	68393,61
556,54	68393,61
557,00	68393,61
557,46	68393,61
557,92	68393,61
558,38	68393,61
558,83	68393,61
559,29	68393,61
559,75	68393,61
560,21	68393,61
560,67	68393,61
561,13	68393,61
561,58	68393,61
562,04	68393,61
562,50	68393,61
562,96	68393,61
563,42	68393,61
563,87	68393,61
564,33	68393,61
564,79	68393,61
565,25	68393,61
565,71	68393,61
566,16	68393,61
566,62	68393,61
567,08	68393,61
567,54	68393,61
568,00	68393,61
568,45	68393,61
568,91	68393,61
569,37	68393,61
569,83	68393,61
570,28	68393,61
570,74	68393,61
571,20	68393,61
571,66	68393,61
572,11	68393,61
572,57	68393,61
573,03	68393,61
573,49	68393,61
573,94	68393,61
574,40	68393,61
574,86	68393,61
575,32	68393,61
575,77	68393,61
576,23	68393,61
576,69	68393,61
577,15	68393,61
577,60	68393,61
578,06	68393,61
578,52	68393,61
578,97	68393,61
579,43	68393,61
579,89	68393,61
580,34	68393,61
580,80	68393,61
581,26	68393,61
581,72	68393,61
582,17	68393,61
582,63	68393,61
583,09	68393,61
583,54	68393,61
584,00	68393,61
584,46	68393,61
584,91	68393,61
585,37	68393,61
585,83	68393,61
586,28	68393,61
586,74	68393,61
587,20	68393,61
587,65	68393,61
588,11	68393,61
588,57	68393,61
589,02	68393,61
589,48	68393,61
589,94	68393,61
590,39	68393,61
590,85	68393,61
591,30	68393,61
591,76	68393,61
592,22	68393,61
592,67	68393,61
593,13	68393,61
593,59	68393,61
594,04	68393,61
594,50	68393,61
594,95	68393,61
595,41	68393,61
595,87	68393,61
596,32	68393,61
596,78	68393,61
597,23	68393,61
597,69	68393,61
598,15	68393,61
598,60	68393,61
599,06	68393,61
599,51	68393,61
599,97	68393,61
600,43	68393,61
600,88	68393,61
601,34	68393,61
601,79	68393,61
602,25	68393,61
602,70	68393,61
603,16	68393,61
603,61	68393,61
604,07	68393,61
604,53	68393,61
604,98	68393,61
605,44	68393,61
605,89	68393,61
606,35	68393,61
606,80	68393,61
607,26	68393,61
607,71	68393,61
608,17	68393,61
608,62	68393,61
609,08	68393,61
609,53	68393,61
609,99	68393,61
610,44	68393,61
610,90	68393,61
611,35	68393,61
611,81	68393,61
612,26	68393,61
612,72	68393,61
613,17	68393,61
613,63	68393,61
614,08	68393,61
614,54	68393,61
614,99	68393,61
615,45	68393,61
615,90	68393,61
616,36	68393,61
616,81	68393,61
617,27	68393,61
617,72	68393,61
618,18	68393,61
618,63	68393,61
619,09	68393,61
619,54	68393,61
619,99	68393,61
620,45	68393,61
620,90	68393,61
621,36	68393,61
621,81	68393,61
622,27	68393,61
622,72	68393,61
623,18	68393,61
623,63	68393,61
624,08	68393,61
624,54	68393,61
624,99	68393,61
625,45	68393,61
625,90	68393,61
626,35	68393,61
626,81	68393,61
627,26	68393,61
627,72	68393,61
628,17	68393,61
628,62	68393,61
629,08	68393,61
629,53	68393,61
629,99	68393,61
630,44	68393,61
630,89	68393,61
631,35	68393,61
631,80	68393,61
632,26	68393,61
632,71	68393,61
633,16	68393,61
633,62	68393,61
634,07	68393,61
634,52	68393,61
634,98	68393,61
635,43	68393,61
635,88	68393,61
636,34	68393,61
636,79	68393,61
637,24	68393,61
637,70	68393,61
638,15	68393,61
638,60	68393,61
639,06	68393,61
639,51	68393,61
639,96	68393,61
640,42	68393,61
640,87	68393,61
641,32	68393,61
641,78	68393,61
642,23	68393,61
642,68	68393,61
643,14	68393,61
643,59	68393,61
644,04	68393,61
644,49	68393,61
644,95	68393,61
645,40	68393,61
645,85	68393,61
646,31	68393,61
646,76	68393,61
647,21	68393,61
647,66	68393,61
648,12	68393,61
648,57	68393,61
649,02	68393,61
649,47	68393,61
649,93	68393,61
650,38	68393,61
650,83	68393,61
651,28	68393,61
651,74	68393,61
652,19	68393,61
652,64	68393,61
653,09	68393,61
653,55	68393,61
654,00	68393,61
654,45	68393,61
654,90	68393,61
655,35	68393,61
655,81	68393,61
656,26	68393,61
656,71	68393,61
657,16	68393,61
657,62	68393,61
658,07	68393,61
658,52	68393,61
658,97	68393,61
659,42	68393,61
659,88	68393,61
660,33	68393,61
660,78	68393,61
661,23	68393,61
661,68	68393,61
662,13	68393,61
662,59	68393,61
663,04	68393,61
663,49	68393,61
663,94	68393,61
664,39	68393,61
664,84	68393,61
665,30	68393,61
665,75	68393,61
666,20	68393,61
666,65	68393,61
667,10	68393,61
667,55	68393,61
668,00	68393,61
668,46	68393,61
668,91	68393,61
669,36	68393,61
669,81	68393,61
670,26	68393,61
670,71	68393,61
671,16	68393,61
671,61	68393,61
672,06	68393,61
672,52	68393,61
672,97	68393,61
673,42	68393,61
673,87	68393,61
674,32	68393,61
674,77	68393,61
675,22	68393,61
675,67	68393,61
676,12	68393,61
676,57	68393,61
677,02	68393,61
677,47	68393,61
677,93	68393,61
678,38	68393,61
678,83	68393,61
679,28	68393,61
679,73	68393,61
680,18	68393,61
680,63	68393,61
681,08	68393,61
681,53	68393,61
681,98	68393,61
682,43	68393,61
682,88	68393,61
683,33	68393,61
683,78	68393,61
684,23	68393,61
684,68	68393,61
685,13	68393,61
685,58	68393,61
686,03	68393,61
686,48	68393,61
686,93	68393,61
687,38	68393,61
687,83	68393,61
688,28	68393,61
688,73	68393,61
689,18	68393,61
689,63	68393,61
690,08	68393,61
690,53	68393,61
690,98	68393,61
691,43	68393,61
691,88	68393,61
692,33	68393,61
692,78	68393,61
693,23	68393,61
693,68	68393,61
694,13	68393,61
694,58	68393,61
695,03	68393,61
695,48	68393,61
695,93	68393,61
696,38	68393,61
696,83	68393,61
697,28	68393,61
697,72	68393,61
698,17	68393,61
698,62	68393,61
699,07	68393,61
699,52	68393,61
699,97	68393,61
700,42	68393,61
700,87	68393,61
701,32	68393,61
701,77	68393,61
702,22	68393,61
702,67	68393,61
703,11	68393,61
703,56	68393,61
704,01	68393,61
704,46	68393,61
704,91	68393,61
705,36	68393,61
705,81	68393,61
706,26	68393,61
706,70	68393,61
707,15	68393,61
707,60	68393,61
708,05	68393,61
708,50	68393,61
708,95	68393,61
709,40	68393,61
709,84	68393,61
710,29	68393,61
710,74	68393,61
711,19	68393,61
711,64	68393,61
712,09	68393,61
712,53	68393,61
712,98	68393,61
713,43	68393,61
713,88	68393,61
714,33	68393,61
714,78	68393,61
715,22	68393,61
715,67	68393,61
716,12	68393,61
716,57	68393,61
717,02	68393,61
717,46	68393,61
717,91	68393,61
718,36	68393,61
718,81	68393,61
719,26	68393,61
719,70	68393,61
720,15	68393,61
720,60	68393,61
721,05	68393,61
721,49	68393,61
721,94	68393,61
722,39	68393,61
722,84	68393,61
723,28	68393,61
723,73	68393,61
724,18	68393,61
724,63	68393,61
725,07	68393,61
725,52	68393,61
725,97	68393,61
726,42	68393,61
726,86	68393,61
727,31	68393,61
727,76	68393,61
728,21	68393,61
728,65	68393,61
729,10	68393,61
729,55	68393,61
729,99	68393,61
730,44	68393,61
730,89	68393,61
731,33	68393,61
731,78	68393,61
732,23	68393,61
732,68	68393,61
733,12	68393,61
733,57	68393,61
734,02	68393,61
734,46	68393,61
734,91	68393,61
735,36	68393,61
735,80	68393,61
736,25	68393,61
736,70	68393,61
737,14	68393,61
737,59	68393,61
738,04	68393,61
738,48	68393,61
738,93	68393,61
739,37	68393,61
739,82	68393,61
740,27	68393,61
740,71	68393,61
741,16	68393,61
741,61	68393,61
742,05	68393,61
742,50	68393,61
742,94	68393,61
743,39	68393,61
743,84	68393,61
744,28	68393,61
744,73	68393,61
745,18	68393,61
745,62	68393,61
746,07	68393,61
746,51	68393,61
746,96	68393,61
747,40	68393,61
747,85	68393,61
748,30	68393,61
748,74	68393,61
749,19	68393,61
749,63	68393,61
750,08	68393,61
750,52	68393,61
750,97	68393,61
751,42	68393,61
751,86	68393,61
752,31	68393,61
752,75	68393,61
753,20	68393,61
753,64	68393,61
754,09	68393,61
754,53	68393,61
754,98	68393,61
755,42	68393,61
755,87	68393,61
756,31	68393,61
756,76	68393,61
757,20	68393,61
757,65	68393,61
758,09	68393,61
758,54	68393,61
758,98	68393,61
759,43	68393,61
759,87	62467,30
760,32	37714,74
760,76	32720,53
761,21	45482,88
761,65	68393,61
762,10	68393,61
762,54	64405,86
762,99	57402,93
763,43	60386,02
763,88	68195,28
764,32	68393,61
764,77	68393,61
765,21	68393,61
765,66	68393,61
766,10	68393,61
766,54	68393,61
766,99	68393,61
767,43	68393,61
767,88	68393,61
768,32	68393,61
768,77	68393,61
769,21	68393,61
769,66	68393,61
770,10	68393,61
770,54	68393,61
770,99	68393,61
771,43	68393,61
771,88	68393,61
772,32	68393,61
772,76	68393,61
773,21	68393,61
773,65	68393,61
774,10	68393,61
774,54	68393,61
774,98	68393,61
775,43	68393,61
775,87	68393,61
776,31	68393,61
776,76	68393,61
777,20	68393,61
777,65	68393,61
778,09	68393,61
778,53	68393,61
778,98	68393,61
779,42	68393,61
779,86	68393,61
780,31	68393,61
780,75	68393,61
781,19	68393,61
781,64	68393,61
782,08	68393,61
782,52	68393,61
782,97	68393,61
783,41	68393,61
783,85	68393,61
784,30	68393,61
784,74	68393,61
785,18	68393,61
785,63	68393,61
786,07	68393,61
786,51	68393,61
786,95	68393,61
787,40	68393,61
787,84	68393,61
788,28	68393,61
788,73	68393,61
789,17	68393,61
789,61	68393,61
790,05	68393,61
790,50	68393,61
790,94	68393,61
791,38	68393,61
791,82	68393,61
792,27	68393,61
792,71	68393,61
793,15	68393,61
793,59	68393,61
794,04	68393,61
794,48	68393,61
794,92	68393,61
795,36	68393,61
795,81	68393,61
796,25	68393,61
796,69	68393,61
797,13	68393,61
797,57	68393,61
798,02	68393,61
798,46	68393,61
798,90	68393,61
799,34	68393,61
799,79	68393,61
800,23	68393,61
800,67	68393,61
801,11	68393,61
801,55	68393,61
801,99	68393,61
802,44	68393,61
802,88	68393,61
803,32	68393,61
803,76	68393,61
804,20	68393,61
804,64	68393,61
805,09	68393,61
805,53	68393,61
805,97	68393,61
806,41	68393,61
806,85	68393,61
807,29	68393,61
807,74	68393,61
808,18	68393,61
808,62	68393,61
809,06	68393,61
809,50	68393,61
809,94	68393,61
810,38	68393,61
810,82	68393,61
811,27	68393,61
811,71	68393,61
812,15	68393,61
812,59	68393,61
813,03	68393,61
813,47	68393,61
813,91	68393,61
814,35	68393,61
814,79	68393,61
815,23	68393,61
815,67	68393,61
816,12	68393,61
816,56	68393,61
817,00	68393,61
817,44	68393,61
817,88	68393,61
818,32	68393,61
818,76	68393,61
819,20	68393,61
819,64	68393,61
820,08	68393,61
820,52	68393,61
820,96	68393,61
821,40	68393,61
821,84	68393,61
822,28	68393,61
822,72	68393,61
823,16	68393,61
823,60	68393,61
824,04	68393,61
824,48	68393,61
824,92	68393,61
825,36	68393,61
825,80	68393,61
826,24	68393,61
826,68	68393,61
827,12	68393,61
827,56	68393,61
828,00	68393,61
828,44	68393,61
828,88	68393,61
829,32	68393,61
829,76	68393,61
830,20	68393,61
830,64	68393,61
831,08	68393,61
831,52	68393,61
831,96	68393,61
832,40	68393,61
832,84	68393,61
833,28	68393,61
833,72	68393,61
834,16	68393,61
834,60	68393,61
835,04	68393,61
835,48	68393,61
835,91	68393,61
836,35	68393,61
836,79	68393,61
837,23	68393,61
837,67	68393,61
838,11	68393,61
838,55	68393,61
838,99	68393,61
839,43	68393,61
839,87	68393,61
840,30	68393,61
840,74	68393,61
841,18	68393,61
841,62	68393,61
842,06	68393,61
842,50	68393,61
842,94	68393,61
843,38	68393,61
843,81	68393,61
844,25	68393,61
844,69	68393,61
845,13	68393,61
845,57	68393,61
846,01	68393,61
846,45	68393,61
846,88	68393,61
847,32	68393,61
847,76	68393,61
848,20	68393,61
848,64	68393,61
849,08	68393,61
849,51	68393,61
849,95	68393,61
850,39	68393,61
850,83	68393,61
851,27	68393,61
851,70	68393,61
852,14	68393,61
852,58	68393,61
853,02	68393,61
853,46	68393,61
853,89	68393,61
854,33	68393,61
854,77	68393,61
855,21	68393,61
855,65	68393,61
856,08	68393,61
856,52	68393,61
856,96	68393,61
857,40	68393,61
857,83	68393,61
858,27	68393,61
858,71	68393,61
859,15	68393,61
859,58	68393,61
860,02	68393,61
860,46	68393,61
860,89	68393,61
861,33	68393,61
861,77	68393,61
862,21	68393,61
862,64	68393,61
863,08	68393,61
863,52	68393,61
863,95	68393,61
864,39	68393,61
864,83	68393,61
865,27	68393,61
865,70	68393,61
866,14	68393,61
866,58	68393,61
867,01	68393,61
867,45	68393,61
867,89	68393,61
868,32	68393,61
868,76	68393,61
869,20	68393,61
869,63	68393,61
870,07	68393,61
870,51	68393,61
870,94	68393,61
871,38	68393,61
871,82	68393,61
872,25	68393,61
872,69	68393,61
873,13	68393,61
873,56	68393,61
874,00	68393,61
874,43	68393,61
874,87	68393,61
875,31	68393,61
875,74	68393,61
876,18	68393,61
876,61	68393,61
877,05	68393,61
877,49	68393,61
877,92	68393,61
878,36	68393,61
878,79	68393,61
879,23	68393,61
879,67	68393,61
880,10	68393,61
880,54	68393,61
880,97	68393,61
881,41	68393,61
881,84	68393,61
882,28	68393,61
882,72	68393,61
883,15	68393,61
883,59	68393,61
884,02	68393,61
884,46	68393,61
884,89	68393,61
885,33	68393,61
885,76	68393,61
886,20	68393,61
886,63	68393,61
887,07	68393,61
887,50	68393,61
887,94	68393,61
888,37	68393,61
888,81	68393,61
889,24	68393,61
889,68	68393,61
890,11	68393,61
890,55	68393,61
890,98	68393,61
891,42	68393,61
891,85	68393,61
892,29	68393,61
892,72	68393,61
893,16	68393,61
893,59	68393,61
894,03	68393,61
894,46	68393,61
894,90	68393,61
895,33	68393,61
895,77	68393,61
896,20	68393,61
896,63	68393,61
897,07	68393,61
897,50	68393,61
897,94	68393,61
898,37	68393,61
898,81	68393,61
899,24	68393,61
899,68	68393,61
900,11	68393,61
900,54	68393,61
900,98	68393,61
901,41	68393,61
901,85	68393,61
902,28	68393,61
902,71	68393,61
903,15	68393,61
903,58	68393,61
904,02	68393,61
904,45	68393,61
904,88	68393,61
905,32	68393,61
905,75	68393,61
906,18	68393,61
906,62	68393,61
907,05	68393,61
907,48	68393,61
907,92	68393,61
908,35	68393,61
908,79	68393,61
909,22	68393,61
909,65	68393,61
910,09	68393,61
910,52	68393,61
910,95	68393,61
911,38	68393,61
911,82	68393,61
912,25	68393,61
912,68	68393,61
913,12	68393,61
913,55	68393,61
913,98	68393,61
914,42	68393,61
914,85	68393,61
915,28	68393,61
915,72	68393,61
916,15	68393,61
916,58	68393,61
917,01	68393,61
917,45	68393,61
917,88	68393,61
918,31	68393,61
918,74	68393,61
919,18	68393,61
919,61	68393,61
920,04	68393,61
920,47	68393,61
920,91	68393,61
921,34	68393,61
921,77	68393,61
922,20	68393,61
922,64	68393,61
923,07	68393,61
923,50	68393,61
923,93	68393,61
924,37	68393,61
924,80	68393,61
925,23	68393,61
925,66	68393,61
926,09	68393,61
926,53	68393,61
926,96	68393,61
927,39	68393,61
927,82	68393,61
928,25	68393,61
928,69	68393,61
929,12	68393,61
929,55	66294,04
929,98	63025,05
930,41	57607,09
930,84	53591,69
931,28	47315,07
931,71	44615,47
932,14	39719,56
932,57	37637,67
933,00	34288,96
933,43	32284,55
933,86	32618,98
934,30	30375,45
934,73	34614,43
935,16	33407,02
935,59	30834,87
936,02	32398,14
936,45	31926,88
936,88	30136,15
937,31	33950,49
937,75	35284,31
938,18	38601,15
938,61	40629,65
939,04	41335,65
939,47	39981,84
939,90	36253,76
940,33	35596,84
940,76	32820,68
941,19	31953,20
941,62	29777,27
942,05	30755,02
942,48	27806,07
942,91	26875,77
943,35	29267,93
943,78	28395,34
944,21	28090,03
944,64	30496,74
945,07	30822,45
945,50	30193,93
945,93	31703,51
946,36	33360,27
946,79	32928,69
947,22	35029,63
947,65	35176,12
948,08	32802,86
948,51	33634,04
948,94	33595,84
949,37	33753,67
949,80	33167,62
950,23	34177,42
950,66	35130,27
951,09	34794,07
951,52	32962,92
951,95	34898,23
952,38	36870,25
952,81	40315,96
953,24	41249,66
953,67	42814,33
954,10	40570,23
954,53	42718,26
954,96	41672,51
955,39	41612,23
955,82	43724,55
956,25	43132,13
956,68	43755,90
957,11	45035,50
957,53	42606,57
957,96	41972,89
958,39	41672,87
958,82	40931,94
959,25	42454,17
959,68	45718,77
960,11	47171,73
960,54	48089,74
960,97	50431,69
961,40	52450,27
961,83	53282,86
962,26	52861,36
962,68	57851,66
963,11	56937,90
963,54	57025,48
963,97	57406,63
964,40	56255,26
964,83	56485,33
965,26	55783,47
965,69	54633,90
966,11	55645,43
966,54	55743,97
966,97	59084,91
967,40	60611,37
967,83	62026,11
968,26	62080,33
968,69	62166,60
969,11	63385,55
969,54	63137,85
969,97	63989,05
970,40	66195,19
970,83	65681,22
971,26	66932,24
971,68	66902,87
972,11	65814,59
972,54	66705,76
972,97	65113,26
973,40	63375,64
973,82	62655,56
974,25	61306,20
974,68	59681,89
975,11	58845,23
975,54	58415,97
975,96	58274,46
976,39	58892,34
976,82	59942,68
977,25	59562,18
977,67	59482,64
978,10	61017,56
978,53	61506,77
978,96	63849,18
979,38	65462,34
979,81	66457,21
980,24	68393,61
980,67	68393,61
981,09	68393,61
981,52	68393,61
981,95	68393,61
982,38	68393,61
982,80	68393,61
983,23	68393,61
983,66	68393,61
984,08	68200,25
984,51	67048,31
984,94	66382,33
985,37	65792,93
985,79	64359,61
986,22	63454,91
986,65	63088,08
987,07	62896,06
987,50	63510,58
987,93	64110,72
988,35	64635,21
988,78	65657,25
989,21	66247,97
989,63	67780,27
990,06	68393,61
990,49	68393,61
990,91	68393,61
991,34	68393,61
991,77	68393,61
992,19	68393,61
992,62	67562,11
993,05	66447,65
993,47	65543,83
993,90	64396,99
994,32	62978,37
994,75	61857,55
995,18	60600,92
995,60	60289,09
996,03	59445,86
996,45	59909,93
996,88	59749,57
997,31	59525,38
997,73	59814,67
998,16	60048,04
998,58	61067,69
999,01	61125,32
999,44	62200,90
999,86	62817,61
1000,29	62628,70
1000,71	62588,62
1001,14	62093,51
1001,56	60867,99
1001,99	59877,55
1002,41	58391,14
1002,84	56808,20
1003,27	54955,87
1003,69	54232,35
1004,12	53047,04
1004,54	52722,11
1004,97	52035,22
1005,39	51544,81
1005,82	51811,72
1006,24	52059,15
1006,67	51798,83
1007,09	51675,87
1007,52	52268,69
1007,94	52284,90
1008,37	53873,28
1008,79	53134,74
1009,22	53068,05
1009,64	53346,61
1010,07	53416,63
1010,49	53660,98
1010,92	52912,57
1011,34	52996,20
1011,77	52226,71
1012,19	51627,27
1012,62	50600,90
1013,04	49158,27
1013,46	48673,06
1013,89	46891,74
1014,31	46997,64
1014,74	46123,44
1015,16	46216,05
1015,59	45856,68
1016,01	46521,04
1016,44	46798,32
1016,86	50820,91
1017,28	47810,89
1017,71	47828,13
1018,13	49475,02
1018,56	49064,22
1018,98	49128,51
1019,40	49269,60
1019,83	49501,48
1020,25	49808,40
1020,68	49853,62
1021,10	49898,84
1021,52	49902,52
1021,95	51065,60
1022,37	49735,61
1022,79	48997,73
1023,22	48258,20
1023,64	47474,20
1024,07	46986,28
1024,49	46582,93
1024,91	45882,29
1025,34	45482,88
1025,76	46185,30
1026,18	45421,09
1026,61	45369,18
1027,03	45212,00
1027,45	45760,47
1027,88	45807,66
1028,30	47138,01
1028,72	46600,14
1029,15	46696,48
1029,57	46754,72
1029,99	46960,27
1030,41	45700,11
1030,84	45773,63
1031,26	45494,22
1031,68	44272,36
1032,11	43934,93
1032,53	42850,72
1032,95	41902,41
1033,37	41449,97
1033,80	40918,53
1034,22	39787,56
1034,64	39890,66
1035,06	38616,67
1035,49	38189,64
1035,91	37993,21
1036,33	37209,73
1036,75	37712,94
1037,18	37639,11
1037,60	37414,12
1038,02	37548,02
1038,44	37633,35
1038,87	37136,35
1039,29	37228,44
1039,71	37407,64
1040,13	36913,03
1040,55	37397,92
1040,98	36985,30
1041,40	36305,82
1041,82	35946,89
1042,24	35028,20
1042,66	34698,15
1043,09	33546,22
1043,51	33117,68
1043,93	32513,18
1044,35	31882,76
1044,77	31616,75
1045,20	31353,38
1045,62	30442,47
1046,04	30398,85
1046,46	30227,96
1046,88	29599,52
1047,30	29861,92
1047,72	29679,18
1048,15	29495,10
1048,57	29150,15
1048,99	29030,98
1049,41	29109,48
1049,83	29145,90
1050,25	29241,76
1050,67	28871,90
1051,09	28324,73
1051,52	28224,48
1051,94	27388,41
1052,36	27782,80
1052,78	26978,54
1053,20	26980,65
1053,62	26533,88
1054,04	26475,87
1054,46	26061,58
1054,88	26158,18
1055,30	25542,10
1055,72	25006,10
1056,14	24447,35
1056,57	25332,73
1056,99	23352,44
1057,41	23296,63
1057,83	23105,87
1058,25	22538,00
1058,67	22382,42
1059,09	21931,02
1059,51	22136,83
1059,93	21723,24
1060,35	21401,39
1060,77	21650,30
1061,19	21784,03
1061,61	21304,23
1062,03	21090,58
1062,45	20819,18
1062,87	21147,45
1063,29	21203,98
1063,71	20637,34
1064,13	20406,44
1064,55	19965,15
1064,97	20511,65
1065,39	19994,87
1065,81	19758,88
1066,23	19582,43
1066,65	19119,46
1067,07	19652,86
1067,49	18831,72
1067,91	18345,04
1068,33	18067,94
1068,75	18521,18
1069,17	18510,17
1069,59	18190,99
1070,00	17619,80
1070,42	17837,44
1070,84	17381,74
1071,26	17088,68
1071,68	16887,64
1072,10	17344,02
1072,52	17094,85
1072,94	16733,95
1073,36	16786,31
1073,78	16817,46
1074,20	16956,47
1074,62	16681,25
1075,03	16533,48
1075,45	16610,44
1075,87	16874,63
1076,29	16420,98
1076,71	16522,53
1077,13	16713,42
1077,55	15503,00
1077,97	15787,77
1078,38	15419,49
1078,80	15281,83
1079,22	15345,54
1079,64	14861,74
1080,06	14663,80
1080,48	14779,08
1080,89	14620,63
1081,31	14352,52
1081,73	14279,16
1082,15	14201,74
1082,57	14327,04
1082,99	14020,83
1083,40	13853,25
1083,82	14207,17
1084,24	13428,24
1084,66	13591,54
1085,08	13819,68
1085,49	13095,12
1085,91	13759,32
1086,33	21732,97
1086,75	13569,85
1087,17	13163,48
1087,58	13101,55
1088,00	13036,93
1088,42	13361,86
1088,84	12849,22
1089,25	12413,32
1089,67	12369,09
1090,09	12221,57
1090,51	11900,75
1090,92	12083,89
1091,34	11684,67
1091,76	11665,80
1092,18	11492,30
1092,59	11362,98
1093,01	11208,13
1093,43	11223,95
1093,84	10970,26
1094,26	11030,47
1094,68	11109,54
1095,10	10639,78
1095,51	10822,64
1095,93	10598,45
1096,35	10914,10
1096,76	10715,06
1097,18	10617,60
1097,60	10412,34
1098,01	10316,96
1098,43	10064,53
1098,85	10056,48
1099,26	9887,72
1099,68	9850,82
1100,10	9343,65
1100,51	9397,25
1100,93	9403,95
1101,35	9316,51
1101,76	9377,82
1102,18	11334,70
1102,60	9539,67
1103,01	8594,80
1103,43	9076,71
1103,84	8882,22
1104,26	8704,86
1104,68	8849,08
1105,09	8280,14
1105,51	8411,53
1105,92	8925,39
1106,34	8065,56
1106,76	8517,87
1107,17	8332,62
1107,59	8294,51
1108,00	7588,58
1108,42	7872,12
1108,83	7458,71
1109,25	7652,36
1109,67	7409,31
1110,08	7408,64
1110,50	7203,39
1110,91	7389,61
1111,33	6990,87
1111,74	6916,48
1112,16	7113,64
1112,57	7096,62
1112,99	6639,36
1113,41	6752,73
1113,82	6495,33
1114,24	6565,34
1114,65	6249,01
1115,07	5942,13
1115,48	5921,14
1115,90	2093,55
1116,31	2173,70
1116,73	2164,72
1117,14	2165,05
>>>>>End Processed Spectral Data<<<<<
