SpectraSuite Data File
++++++++++++++++++++++++++++++++++++
Date: Tue Oct 11 14:34:48 EEST 2016
User: OO Maya
Dark Spectrum Present: No
Reference Spectrum Present: No
Number of Sampled Component Spectra: 1
Spectrometers: MAYP11278
Integration Time (usec): 7000000 (MAYP11278)
Spectra Averaged: 3 (MAYP11278)
Boxcar Smoothing: 0 (MAYP11278)
Correct for Electrical Dark: No (MAYP11278)
Strobe/Lamp Enabled: No (MAYP11278)
Correct for Detector Non-linearity: Yes (MAYP11278)
Correct for Stray Light: No (MAYP11278)
Number of Pixels in Processed Spectrum: 2068
>>>>>Begin Processed Spectral Data<<<<<
187,82	2263,16
188,30	2195,65
188,78	2164,39
189,26	2163,05
189,73	5440,53
190,21	5812,88
190,69	5860,85
191,17	6105,39
191,64	6357,00
192,12	6122,38
192,60	6035,75
193,07	5830,87
193,55	6066,74
194,03	6044,08
194,51	6133,38
194,98	6061,41
195,46	6451,66
195,94	6019,76
196,42	6114,39
196,89	6993,20
197,37	6101,72
197,85	5888,16
198,32	6067,74
198,80	5929,47
199,28	6245,68
199,76	6369,33
200,23	6045,41
200,71	6055,08
201,19	6362,00
201,66	6401,66
202,14	6353,66
202,62	5887,16
203,09	6312,34
203,57	5914,15
204,05	6441,66
204,53	6558,67
205,00	5986,11
205,48	6026,09
205,96	6641,36
206,43	6001,43
206,91	6238,68
207,39	6976,86
207,86	6223,69
208,34	6338,67
208,82	6150,71
209,29	6466,33
209,77	6377,66
210,25	6168,37
210,72	6156,37
211,20	6348,67
211,68	6165,70
212,15	6014,43
212,63	6707,71
213,11	6348,67
213,58	6096,73
214,06	6794,08
214,53	6278,67
215,01	6707,04
215,49	6351,66
215,96	6448,66
216,44	6446,66
216,92	6414,99
217,39	6036,42
217,87	6166,70
218,35	6624,02
218,82	5887,50
219,30	6039,75
219,77	6045,08
220,25	6218,35
220,73	6929,49
221,20	6084,06
221,68	6537,67
222,15	6018,43
222,63	6471,33
223,11	6135,71
223,58	6466,00
224,06	6162,70
224,53	6063,41
225,01	5986,77
225,49	6136,71
225,96	5997,10
226,44	6249,68
226,91	6483,66
227,39	6163,37
227,87	6532,67
228,34	6436,66
228,82	6370,66
229,29	6150,37
229,77	6188,36
230,24	6135,05
230,72	6450,00
231,20	6502,00
231,67	6265,01
232,15	6281,34
232,62	5963,79
233,10	6320,00
233,57	6352,66
234,05	7418,32
234,53	6351,66
235,00	6115,39
235,48	6038,75
235,95	5926,47
236,43	6524,00
236,90	6894,47
237,38	6133,05
237,85	6349,67
238,33	6304,67
238,80	6351,66
239,28	6237,02
239,75	5936,47
240,23	6436,99
240,71	6638,36
241,18	6387,66
241,66	6230,35
242,13	6548,00
242,61	6608,02
243,08	5976,45
243,56	6040,75
244,03	6494,33
244,51	6688,70
244,98	6209,69
245,46	6688,04
245,93	20062,28
246,41	5882,83
246,88	6343,33
247,36	6336,67
247,83	6353,66
248,31	6381,33
248,78	5828,20
249,26	6307,67
249,73	6550,34
250,21	6365,66
250,68	6737,06
251,16	6322,33
251,63	6941,16
252,10	6704,38
252,58	6185,03
253,05	6689,04
253,53	6347,67
254,00	6231,35
254,48	6360,00
254,95	6441,66
255,43	6576,68
255,90	6128,71
256,38	6439,99
256,85	6527,67
257,33	6610,68
257,80	7371,59
258,27	6393,00
258,75	6190,36
259,22	6447,33
259,70	6574,01
260,17	6895,80
260,65	6359,00
261,12	6219,02
261,59	6657,69
262,07	6132,38
262,54	6452,66
263,02	6308,00
263,49	5946,13
263,97	6557,34
264,44	6645,02
264,91	6211,36
265,39	6386,66
265,86	6467,00
266,34	6531,67
266,81	6258,35
267,28	6348,00
267,76	6496,66
268,23	6518,33
268,71	5940,80
269,18	6113,39
269,65	6258,01
270,13	6543,00
270,60	6730,72
271,08	6303,67
271,55	6361,33
272,02	6011,43
272,50	6058,41
272,97	5821,21
273,44	6381,66
273,92	7613,29
274,39	6568,01
274,87	6679,70
275,34	6254,68
275,81	6285,34
276,29	6485,66
276,76	6649,36
277,23	6050,74
277,71	6301,34
278,18	6105,06
278,65	7852,08
279,13	6287,01
279,60	6216,35
280,07	7692,43
280,55	6661,03
281,02	7468,06
281,50	6240,35
281,97	6733,39
282,44	6304,34
282,91	6304,00
283,39	6534,67
283,86	6082,07
284,33	6088,40
284,81	6589,34
285,28	6312,67
285,75	6469,33
286,23	6474,33
286,70	6014,43
287,17	6471,66
287,65	6908,48
288,12	6245,35
288,59	6620,35
289,07	5891,83
289,54	6871,45
290,01	6167,04
290,48	6467,00
290,96	6243,35
291,43	6535,34
291,90	7135,99
292,38	6173,70
292,85	6691,04
293,32	6240,35
293,79	6580,01
294,27	6539,67
294,74	6220,35
295,21	6387,00
295,69	6508,33
296,16	6991,20
296,63	6932,49
297,10	6594,68
297,58	6528,67
298,05	6529,33
298,52	6229,68
298,99	6897,47
299,47	6372,66
299,94	6545,67
300,41	6218,35
300,88	6672,70
301,36	6715,38
301,83	6680,37
302,30	6147,37
302,77	6572,34
303,25	6668,70
303,72	6179,36
304,19	6259,35
304,66	6158,04
305,13	6452,66
305,61	6490,33
306,08	6418,99
306,55	6577,34
307,02	6257,01
307,49	6264,68
307,97	6432,66
308,44	6264,01
308,91	6627,69
309,38	6670,03
309,86	6488,66
310,33	6385,00
310,80	6479,33
311,27	6196,69
311,74	6672,37
312,21	6358,00
312,69	7022,22
313,16	6169,03
313,63	6261,68
314,10	6404,33
314,57	6225,02
315,05	6219,35
315,52	6646,36
315,99	6653,69
316,46	6459,33
316,93	6591,01
317,40	6464,33
317,88	7306,84
318,35	6407,66
318,82	6309,34
319,29	6048,08
319,76	6556,34
320,23	6986,20
320,70	6674,37
321,18	6308,34
321,65	5890,16
322,12	6118,05
322,59	6931,49
323,06	6297,01
323,53	7187,04
324,00	6032,42
324,48	6426,99
324,95	6342,67
325,42	6238,02
325,89	6310,34
326,36	6271,34
326,83	6576,68
327,30	6561,67
327,77	6547,67
328,24	6468,00
328,72	6434,33
329,19	6295,34
329,66	6321,67
330,13	6246,68
330,60	6704,71
331,07	6601,35
331,54	6997,87
332,01	6242,35
332,48	7091,28
332,95	6709,71
333,43	6616,68
333,90	6910,48
334,37	6560,34
334,84	6654,03
335,31	7741,52
335,78	6150,04
336,25	6376,00
336,72	6330,67
337,19	6567,67
337,66	6282,34
338,13	6296,01
338,60	6893,80
339,07	6656,03
339,54	6047,75
340,01	6090,40
340,49	6036,75
340,96	6463,33
341,43	6642,36
341,90	6150,71
342,37	6339,33
342,84	6510,33
343,31	6367,66
343,78	6158,04
344,25	6210,36
344,72	6035,42
345,19	6255,68
345,66	6390,33
346,13	6097,06
346,60	5985,44
347,07	6772,07
347,54	6126,38
348,01	6575,01
348,48	6328,33
348,95	5910,48
349,42	6291,01
349,89	6529,33
350,36	6252,01
350,83	6012,43
351,30	6332,67
351,77	6815,76
352,24	6367,33
352,71	6203,02
353,18	6302,00
353,65	6423,33
354,12	6314,67
354,59	6487,00
355,06	6352,66
355,53	6747,39
356,00	6084,06
356,47	6762,40
356,94	6035,08
357,41	7240,43
357,88	6469,33
358,35	5903,15
358,82	6024,09
359,28	6097,73
359,75	6136,05
360,22	6542,34
360,69	6789,41
361,16	6136,05
361,63	6261,68
362,10	6284,34
362,57	6209,69
363,04	6284,34
363,51	7110,30
363,98	6456,66
364,45	6092,73
364,92	6448,33
365,39	6141,38
365,86	6000,10
366,32	6419,33
366,79	6295,01
367,26	11225,30
367,73	5825,87
368,20	6042,75
368,67	6584,34
369,14	6030,75
369,61	6569,01
370,08	6411,66
370,55	6255,68
371,02	9840,76
371,48	6401,66
371,95	6195,69
372,42	5937,13
372,89	6123,38
373,36	6336,67
373,83	5987,77
374,30	6124,05
374,77	6477,00
375,23	5930,47
375,70	6894,80
376,17	6260,34
376,64	6099,72
377,11	6094,73
377,58	6469,00
378,05	6430,66
378,51	6352,00
378,98	6424,33
379,45	6361,00
379,92	6597,68
380,39	7221,08
380,86	6426,33
381,33	6878,12
381,79	6803,42
382,26	6074,73
382,73	6503,67
383,20	6323,00
383,67	6681,04
384,14	6426,66
384,60	8252,39
385,07	6458,33
385,54	6282,67
386,01	6396,66
386,48	6990,53
386,94	6219,69
387,41	6169,03
387,88	6725,72
388,35	6579,01
388,82	6912,81
389,28	6327,67
389,75	6718,05
390,22	6662,36
390,69	6910,48
391,16	6870,12
391,62	6959,84
392,09	7094,95
392,56	7041,57
393,03	7177,36
393,50	8343,99
393,96	7993,06
394,43	8900,96
394,90	8768,10
395,37	9795,48
395,83	11753,42
396,30	9991,72
396,77	11195,01
397,24	12859,36
397,70	14636,95
398,17	17071,55
398,64	18672,63
399,11	20660,19
399,57	23059,85
400,04	24374,24
400,51	26496,61
400,98	28681,43
401,44	30859,72
401,91	32849,91
402,38	34651,64
402,84	35658,51
403,31	37579,34
403,78	39531,89
404,25	41447,43
404,71	42346,17
405,18	44781,26
405,65	45481,42
406,12	47156,34
406,58	49020,14
407,05	52306,63
407,52	53970,23
407,98	56435,84
408,45	58877,50
408,92	60565,83
409,38	62128,54
409,85	60858,27
410,32	62924,12
410,78	66132,96
411,25	67685,17
411,72	68297,43
412,18	68393,61
412,65	68393,61
413,12	68393,61
413,59	68393,61
414,05	68393,61
414,52	68393,61
414,98	68393,61
415,45	68393,61
415,92	68393,61
416,38	68393,61
416,85	68393,61
417,32	68393,61
417,78	68393,61
418,25	68393,61
418,72	68393,61
419,18	68393,61
419,65	68393,61
420,12	68393,61
420,58	68393,61
421,05	68393,61
421,51	68393,61
421,98	68393,61
422,45	68393,61
422,91	68393,61
423,38	68393,61
423,85	68393,61
424,31	68393,61
424,78	68393,61
425,24	68393,61
425,71	68393,61
426,18	68393,61
426,64	68393,61
427,11	68393,61
427,57	68393,61
428,04	68393,61
428,51	68393,61
428,97	68393,61
429,44	68393,61
429,90	68393,61
430,37	68393,61
430,83	68393,61
431,30	68393,61
431,77	68393,61
432,23	68393,61
432,70	68393,61
433,16	68393,61
433,63	68393,61
434,09	68393,61
434,56	68393,61
435,03	68393,61
435,49	68393,61
435,96	68393,61
436,42	68393,61
436,89	68393,61
437,35	68393,61
437,82	68393,61
438,28	68393,61
438,75	68393,61
439,21	68393,61
439,68	68393,61
440,14	68393,61
440,61	68393,61
441,07	68393,61
441,54	68393,61
442,00	68393,61
442,47	68393,61
442,94	68393,61
443,40	68393,61
443,87	68393,61
444,33	68393,61
444,80	68393,61
445,26	68393,61
445,73	68393,61
446,19	68393,61
446,65	68393,61
447,12	68393,61
447,58	68393,61
448,05	68393,61
448,51	68393,61
448,98	68393,61
449,44	68393,61
449,91	68393,61
450,37	68393,61
450,84	68393,61
451,30	68393,61
451,77	68393,61
452,23	68393,61
452,70	68393,61
453,16	68393,61
453,62	68393,61
454,09	68393,61
454,55	68393,61
455,02	68393,61
455,48	68393,61
455,95	68393,61
456,41	68393,61
456,88	68393,61
457,34	68393,61
457,80	68393,61
458,27	68393,61
458,73	68393,61
459,20	68393,61
459,66	68393,61
460,13	68393,61
460,59	68393,61
461,05	68393,61
461,52	68393,61
461,98	68393,61
462,45	68393,61
462,91	68393,61
463,37	68393,61
463,84	68393,61
464,30	68393,61
464,76	68393,61
465,23	68393,61
465,69	68393,61
466,16	68393,61
466,62	68393,61
467,08	68393,61
467,55	68393,61
468,01	68393,61
468,48	68393,61
468,94	68393,61
469,40	68393,61
469,87	68393,61
470,33	68393,61
470,79	68393,61
471,26	68393,61
471,72	68393,61
472,18	68393,61
472,65	68393,61
473,11	68393,61
473,57	68393,61
474,04	68393,61
474,50	68393,61
474,96	68393,61
475,43	68393,61
475,89	68393,61
476,35	68393,61
476,82	68393,61
477,28	68393,61
477,74	68393,61
478,21	68393,61
478,67	68393,61
479,13	68393,61
479,59	68393,61
480,06	68393,61
480,52	68393,61
480,98	68393,61
481,45	68393,61
481,91	68393,61
482,37	68393,61
482,84	68393,61
483,30	68393,61
483,76	68393,61
484,22	68393,61
484,69	68393,61
485,15	68393,61
485,61	68393,61
486,07	68393,61
486,54	68393,61
487,00	68393,61
487,46	68393,61
487,92	68393,61
488,39	68393,61
488,85	68393,61
489,31	68393,61
489,77	68393,61
490,24	68393,61
490,70	68393,61
491,16	68393,61
491,62	68393,61
492,09	68393,61
492,55	68393,61
493,01	68393,61
493,47	68393,61
493,94	68393,61
494,40	68393,61
494,86	68393,61
495,32	68393,61
495,78	68393,61
496,25	68393,61
496,71	68393,61
497,17	68393,61
497,63	68393,61
498,09	68393,61
498,56	68393,61
499,02	68393,61
499,48	68393,61
499,94	68393,61
500,40	68393,61
500,87	68393,61
501,33	68393,61
501,79	68393,61
502,25	68393,61
502,71	68393,61
503,17	68393,61
503,64	68393,61
504,10	68393,61
504,56	68393,61
505,02	68393,61
505,48	68393,61
505,94	68393,61
506,40	68393,61
506,87	68393,61
507,33	68393,61
507,79	68393,61
508,25	68393,61
508,71	68393,61
509,17	68393,61
509,63	68393,61
510,10	68393,61
510,56	68393,61
511,02	68393,61
511,48	68393,61
511,94	68393,61
512,40	68393,61
512,86	68393,61
513,32	68393,61
513,78	68393,61
514,25	68393,61
514,71	68393,61
515,17	68393,61
515,63	68393,61
516,09	68393,61
516,55	68393,61
517,01	68393,61
517,47	68393,61
517,93	68393,61
518,39	68393,61
518,85	68393,61
519,32	68393,61
519,78	68393,61
520,24	68393,61
520,70	68393,61
521,16	68393,61
521,62	68393,61
522,08	68393,61
522,54	68393,61
523,00	68393,61
523,46	68393,61
523,92	68393,61
524,38	68393,61
524,84	68393,61
525,30	68393,61
525,76	68393,61
526,22	68393,61
526,68	68393,61
527,14	68393,61
527,60	68393,61
528,06	68393,61
528,52	68393,61
528,98	68393,61
529,44	68393,61
529,90	68393,61
530,36	68393,61
530,82	68393,61
531,28	68393,61
531,74	68393,61
532,20	68393,61
532,66	68393,61
533,12	68393,61
533,58	68393,61
534,04	68393,61
534,50	68393,61
534,96	68393,61
535,42	68393,61
535,88	68393,61
536,34	68393,61
536,80	68393,61
537,26	68393,61
537,72	68393,61
538,18	68393,61
538,64	68393,61
539,10	68393,61
539,56	68393,61
540,02	68393,61
540,48	68393,61
540,94	68393,61
541,40	68393,61
541,86	68393,61
542,32	68393,61
542,78	68393,61
543,24	68393,61
543,69	68393,61
544,15	68393,61
544,61	68393,61
545,07	68393,61
545,53	68393,61
545,99	68393,61
546,45	68393,61
546,91	68393,61
547,37	68393,61
547,83	68393,61
548,29	68393,61
548,74	68393,61
549,20	68393,61
549,66	68393,61
550,12	68393,61
550,58	68393,61
551,04	68393,61
551,50	68393,61
551,96	68393,61
552,42	68393,61
552,87	68393,61
553,33	68393,61
553,79	68393,61
554,25	68393,61
554,71	68393,61
555,17	68393,61
555,63	68393,61
556,08	68393,61
556,54	68393,61
557,00	68393,61
557,46	68393,61
557,92	68393,61
558,38	68393,61
558,83	68393,61
559,29	68393,61
559,75	68393,61
560,21	68393,61
560,67	68393,61
561,13	68393,61
561,58	68393,61
562,04	68393,61
562,50	68393,61
562,96	68393,61
563,42	68393,61
563,87	68393,61
564,33	68393,61
564,79	68393,61
565,25	68393,61
565,71	68393,61
566,16	68393,61
566,62	68393,61
567,08	68393,61
567,54	68393,61
568,00	68393,61
568,45	68393,61
568,91	68393,61
569,37	68393,61
569,83	68393,61
570,28	68393,61
570,74	68393,61
571,20	68393,61
571,66	68393,61
572,11	68393,61
572,57	68393,61
573,03	68393,61
573,49	68393,61
573,94	68393,61
574,40	68393,61
574,86	68393,61
575,32	68393,61
575,77	68393,61
576,23	68393,61
576,69	68393,61
577,15	68393,61
577,60	68393,61
578,06	68393,61
578,52	68393,61
578,97	68393,61
579,43	68393,61
579,89	68393,61
580,34	68393,61
580,80	68393,61
581,26	68393,61
581,72	68393,61
582,17	68393,61
582,63	68393,61
583,09	68393,61
583,54	68393,61
584,00	68393,61
584,46	68393,61
584,91	68393,61
585,37	68393,61
585,83	68393,61
586,28	68393,61
586,74	68393,61
587,20	68393,61
587,65	68393,61
588,11	68393,61
588,57	68393,61
589,02	68393,61
589,48	68393,61
589,94	68393,61
590,39	68393,61
590,85	68393,61
591,30	68393,61
591,76	68393,61
592,22	68393,61
592,67	68393,61
593,13	68393,61
593,59	68393,61
594,04	68393,61
594,50	68393,61
594,95	68393,61
595,41	68393,61
595,87	68393,61
596,32	68393,61
596,78	68393,61
597,23	68393,61
597,69	68393,61
598,15	68393,61
598,60	68393,61
599,06	68393,61
599,51	68393,61
599,97	68393,61
600,43	68393,61
600,88	68393,61
601,34	68393,61
601,79	68393,61
602,25	68393,61
602,70	68393,61
603,16	68393,61
603,61	68393,61
604,07	68393,61
604,53	68393,61
604,98	68393,61
605,44	68393,61
605,89	68393,61
606,35	68393,61
606,80	68393,61
607,26	68393,61
607,71	68393,61
608,17	68393,61
608,62	68393,61
609,08	68393,61
609,53	68393,61
609,99	68393,61
610,44	68393,61
610,90	68393,61
611,35	68393,61
611,81	68393,61
612,26	68393,61
612,72	68393,61
613,17	68393,61
613,63	68393,61
614,08	68393,61
614,54	68393,61
614,99	68393,61
615,45	68393,61
615,90	68393,61
616,36	68393,61
616,81	68393,61
617,27	68393,61
617,72	68393,61
618,18	68393,61
618,63	68393,61
619,09	68393,61
619,54	68393,61
619,99	68393,61
620,45	68393,61
620,90	68393,61
621,36	68393,61
621,81	68393,61
622,27	68393,61
622,72	68393,61
623,18	68393,61
623,63	68393,61
624,08	68393,61
624,54	68393,61
624,99	68393,61
625,45	68393,61
625,90	68393,61
626,35	68393,61
626,81	68393,61
627,26	68393,61
627,72	68393,61
628,17	68393,61
628,62	68393,61
629,08	68393,61
629,53	68393,61
629,99	68393,61
630,44	68393,61
630,89	68393,61
631,35	68393,61
631,80	68393,61
632,26	68393,61
632,71	68393,61
633,16	68393,61
633,62	68393,61
634,07	68393,61
634,52	68393,61
634,98	68393,61
635,43	68393,61
635,88	68393,61
636,34	68393,61
636,79	68393,61
637,24	68393,61
637,70	68393,61
638,15	68393,61
638,60	68393,61
639,06	68393,61
639,51	68393,61
639,96	68393,61
640,42	68393,61
640,87	68393,61
641,32	68393,61
641,78	68393,61
642,23	68393,61
642,68	68393,61
643,14	68393,61
643,59	68393,61
644,04	68393,61
644,49	68393,61
644,95	68393,61
645,40	68393,61
645,85	68393,61
646,31	68393,61
646,76	68393,61
647,21	68393,61
647,66	68393,61
648,12	68393,61
648,57	68393,61
649,02	68393,61
649,47	68393,61
649,93	68393,61
650,38	68393,61
650,83	68393,61
651,28	68393,61
651,74	68393,61
652,19	68393,61
652,64	68393,61
653,09	68393,61
653,55	68393,61
654,00	68393,61
654,45	68393,61
654,90	68393,61
655,35	68393,61
655,81	68393,61
656,26	68393,61
656,71	68393,61
657,16	68393,61
657,62	68393,61
658,07	68393,61
658,52	68393,61
658,97	68393,61
659,42	68393,61
659,88	68393,61
660,33	68393,61
660,78	68393,61
661,23	68393,61
661,68	68393,61
662,13	68393,61
662,59	68393,61
663,04	68393,61
663,49	68393,61
663,94	68393,61
664,39	68393,61
664,84	68393,61
665,30	68393,61
665,75	68393,61
666,20	68393,61
666,65	68393,61
667,10	68393,61
667,55	68393,61
668,00	68393,61
668,46	68393,61
668,91	68393,61
669,36	68393,61
669,81	68393,61
670,26	68393,61
670,71	68393,61
671,16	68393,61
671,61	68393,61
672,06	68393,61
672,52	68393,61
672,97	68393,61
673,42	68393,61
673,87	68393,61
674,32	68393,61
674,77	68393,61
675,22	68393,61
675,67	68393,61
676,12	68393,61
676,57	68393,61
677,02	68393,61
677,47	68393,61
677,93	68393,61
678,38	68393,61
678,83	68393,61
679,28	68393,61
679,73	68393,61
680,18	68393,61
680,63	68393,61
681,08	68393,61
681,53	68393,61
681,98	68393,61
682,43	68393,61
682,88	68393,61
683,33	68393,61
683,78	68393,61
684,23	68393,61
684,68	68393,61
685,13	68393,61
685,58	68393,61
686,03	68393,61
686,48	68393,61
686,93	68393,61
687,38	68393,61
687,83	68393,61
688,28	68393,61
688,73	68393,61
689,18	68393,61
689,63	68393,61
690,08	68393,61
690,53	68393,61
690,98	68393,61
691,43	68393,61
691,88	68393,61
692,33	68393,61
692,78	68393,61
693,23	68393,61
693,68	68393,61
694,13	68393,61
694,58	68393,61
695,03	68393,61
695,48	68393,61
695,93	68393,61
696,38	68393,61
696,83	68393,61
697,28	68393,61
697,72	68393,61
698,17	68393,61
698,62	68393,61
699,07	68393,61
699,52	68393,61
699,97	68393,61
700,42	68393,61
700,87	68393,61
701,32	68393,61
701,77	68393,61
702,22	68393,61
702,67	68393,61
703,11	68393,61
703,56	68393,61
704,01	68393,61
704,46	68393,61
704,91	68393,61
705,36	68393,61
705,81	68393,61
706,26	68393,61
706,70	68393,61
707,15	68393,61
707,60	68393,61
708,05	68393,61
708,50	68393,61
708,95	68393,61
709,40	68393,61
709,84	68393,61
710,29	68393,61
710,74	68393,61
711,19	68393,61
711,64	68393,61
712,09	68393,61
712,53	68393,61
712,98	68393,61
713,43	68393,61
713,88	68393,61
714,33	68393,61
714,78	68393,61
715,22	68393,61
715,67	68393,61
716,12	68393,61
716,57	68393,61
717,02	68393,61
717,46	68393,61
717,91	68393,61
718,36	68393,61
718,81	68393,61
719,26	68393,61
719,70	68393,61
720,15	68393,61
720,60	68393,61
721,05	68393,61
721,49	68393,61
721,94	68393,61
722,39	68393,61
722,84	68393,61
723,28	68393,61
723,73	68393,61
724,18	68393,61
724,63	68393,61
725,07	68393,61
725,52	68393,61
725,97	68393,61
726,42	68393,61
726,86	68393,61
727,31	68393,61
727,76	68393,61
728,21	68393,61
728,65	68393,61
729,10	68393,61
729,55	68393,61
729,99	68393,61
730,44	68393,61
730,89	68393,61
731,33	68393,61
731,78	68393,61
732,23	68393,61
732,68	68393,61
733,12	68393,61
733,57	68393,61
734,02	68393,61
734,46	68393,61
734,91	68393,61
735,36	68393,61
735,80	68393,61
736,25	68393,61
736,70	68393,61
737,14	68393,61
737,59	68393,61
738,04	68393,61
738,48	68393,61
738,93	68393,61
739,37	68393,61
739,82	68393,61
740,27	68393,61
740,71	68393,61
741,16	68393,61
741,61	68393,61
742,05	68393,61
742,50	68393,61
742,94	68393,61
743,39	68393,61
743,84	68393,61
744,28	68393,61
744,73	68393,61
745,18	68393,61
745,62	68393,61
746,07	68393,61
746,51	68393,61
746,96	68393,61
747,40	68393,61
747,85	68393,61
748,30	68393,61
748,74	68393,61
749,19	68393,61
749,63	68393,61
750,08	68393,61
750,52	68393,61
750,97	68393,61
751,42	68393,61
751,86	68393,61
752,31	68393,61
752,75	68393,61
753,20	68393,61
753,64	68393,61
754,09	68393,61
754,53	68393,61
754,98	68393,61
755,42	68393,61
755,87	68393,61
756,31	68393,61
756,76	68393,61
757,20	68393,61
757,65	68393,61
758,09	68393,61
758,54	68393,61
758,98	68393,61
759,43	68393,61
759,87	56321,36
760,32	34349,03
760,76	30263,76
761,21	41974,71
761,65	64361,15
762,10	66826,10
762,54	57934,19
762,99	51814,30
763,43	54465,01
763,88	61447,89
764,32	67634,02
764,77	68393,61
765,21	68393,61
765,66	68393,61
766,10	68393,61
766,54	68393,61
766,99	68393,61
767,43	68393,61
767,88	68393,61
768,32	68393,61
768,77	68393,61
769,21	68393,61
769,66	68393,61
770,10	68393,61
770,54	68393,61
770,99	68393,61
771,43	68393,61
771,88	68393,61
772,32	68393,61
772,76	68393,61
773,21	68393,61
773,65	68393,61
774,10	68393,61
774,54	68393,61
774,98	68393,61
775,43	68393,61
775,87	68393,61
776,31	68393,61
776,76	68393,61
777,20	68393,61
777,65	68393,61
778,09	68393,61
778,53	68393,61
778,98	68393,61
779,42	68393,61
779,86	68393,61
780,31	68393,61
780,75	68393,61
781,19	68393,61
781,64	68393,61
782,08	68393,61
782,52	68393,61
782,97	68393,61
783,41	68393,61
783,85	68393,61
784,30	68393,61
784,74	68393,61
785,18	68393,61
785,63	68393,61
786,07	68393,61
786,51	68393,61
786,95	68393,61
787,40	68393,61
787,84	68393,61
788,28	68393,61
788,73	68393,61
789,17	68393,61
789,61	68393,61
790,05	68393,61
790,50	68393,61
790,94	68393,61
791,38	68393,61
791,82	68393,61
792,27	68393,61
792,71	68393,61
793,15	68393,61
793,59	68393,61
794,04	68393,61
794,48	68393,61
794,92	68393,61
795,36	68393,61
795,81	68393,61
796,25	68393,61
796,69	68393,61
797,13	68393,61
797,57	68393,61
798,02	68393,61
798,46	68393,61
798,90	68393,61
799,34	68393,61
799,79	68393,61
800,23	68393,61
800,67	68393,61
801,11	68393,61
801,55	68393,61
801,99	68393,61
802,44	68393,61
802,88	68393,61
803,32	68393,61
803,76	68393,61
804,20	68393,61
804,64	68393,61
805,09	68393,61
805,53	68393,61
805,97	68393,61
806,41	68393,61
806,85	68393,61
807,29	68393,61
807,74	68393,61
808,18	68393,61
808,62	68393,61
809,06	68393,61
809,50	68393,61
809,94	68393,61
810,38	68393,61
810,82	68393,61
811,27	68393,61
811,71	68393,61
812,15	68393,61
812,59	68393,61
813,03	68393,61
813,47	68393,61
813,91	68393,61
814,35	68393,61
814,79	68393,61
815,23	68393,61
815,67	68393,61
816,12	68393,61
816,56	68393,61
817,00	68393,61
817,44	68393,61
817,88	68393,61
818,32	68393,61
818,76	68393,61
819,20	68393,61
819,64	68393,61
820,08	68393,61
820,52	68393,61
820,96	68393,61
821,40	68393,61
821,84	68393,61
822,28	68393,61
822,72	68393,61
823,16	68393,61
823,60	68393,61
824,04	68393,61
824,48	68393,61
824,92	68393,61
825,36	68393,61
825,80	68393,61
826,24	68393,61
826,68	68393,61
827,12	68393,61
827,56	68393,61
828,00	68393,61
828,44	68393,61
828,88	68393,61
829,32	68393,61
829,76	68393,61
830,20	68393,61
830,64	68393,61
831,08	68393,61
831,52	68393,61
831,96	68393,61
832,40	68393,61
832,84	68393,61
833,28	68393,61
833,72	68393,61
834,16	68393,61
834,60	68393,61
835,04	68393,61
835,48	68393,61
835,91	68393,61
836,35	68393,61
836,79	68393,61
837,23	68393,61
837,67	68393,61
838,11	68393,61
838,55	68393,61
838,99	68393,61
839,43	68393,61
839,87	68393,61
840,30	68393,61
840,74	68393,61
841,18	68393,61
841,62	68393,61
842,06	68393,61
842,50	68393,61
842,94	68393,61
843,38	68393,61
843,81	68393,61
844,25	68393,61
844,69	68393,61
845,13	68393,61
845,57	68393,61
846,01	68393,61
846,45	68393,61
846,88	68393,61
847,32	68393,61
847,76	68393,61
848,20	68393,61
848,64	68393,61
849,08	68393,61
849,51	68393,61
849,95	68393,61
850,39	68393,61
850,83	68393,61
851,27	68393,61
851,70	68393,61
852,14	68393,61
852,58	68393,61
853,02	68393,61
853,46	68393,61
853,89	68393,61
854,33	68393,61
854,77	68393,61
855,21	68393,61
855,65	68393,61
856,08	68393,61
856,52	68393,61
856,96	68393,61
857,40	68393,61
857,83	68393,61
858,27	68393,61
858,71	68393,61
859,15	68393,61
859,58	68393,61
860,02	68393,61
860,46	68393,61
860,89	68393,61
861,33	68393,61
861,77	68393,61
862,21	68393,61
862,64	68393,61
863,08	68393,61
863,52	68393,61
863,95	68393,61
864,39	68393,61
864,83	68393,61
865,27	68393,61
865,70	68393,61
866,14	68393,61
866,58	68393,61
867,01	68393,61
867,45	68393,61
867,89	68393,61
868,32	68393,61
868,76	68393,61
869,20	68393,61
869,63	68393,61
870,07	68393,61
870,51	68393,61
870,94	68393,61
871,38	68393,61
871,82	68393,61
872,25	68393,61
872,69	68393,61
873,13	68393,61
873,56	68393,61
874,00	68393,61
874,43	68393,61
874,87	68393,61
875,31	68393,61
875,74	68393,61
876,18	68393,61
876,61	68393,61
877,05	68393,61
877,49	68393,61
877,92	68393,61
878,36	68393,61
878,79	68393,61
879,23	68393,61
879,67	68393,61
880,10	68393,61
880,54	68393,61
880,97	68393,61
881,41	68393,61
881,84	68393,61
882,28	68393,61
882,72	68393,61
883,15	68393,61
883,59	68393,61
884,02	68393,61
884,46	68393,61
884,89	68393,61
885,33	68393,61
885,76	68393,61
886,20	68393,61
886,63	68393,61
887,07	68393,61
887,50	68393,61
887,94	68393,61
888,37	68393,61
888,81	68393,61
889,24	68393,61
889,68	68393,61
890,11	68393,61
890,55	68393,61
890,98	68393,61
891,42	68393,61
891,85	68393,61
892,29	68393,61
892,72	68393,61
893,16	68393,61
893,59	68393,61
894,03	68393,61
894,46	68393,61
894,90	68393,61
895,33	68393,61
895,77	68393,61
896,20	68393,61
896,63	68393,61
897,07	68393,61
897,50	68393,61
897,94	68393,61
898,37	68393,61
898,81	68393,61
899,24	68393,61
899,68	68393,61
900,11	68393,61
900,54	68393,61
900,98	68393,61
901,41	68393,61
901,85	68393,61
902,28	68393,61
902,71	68393,61
903,15	68393,61
903,58	68393,61
904,02	68393,61
904,45	68393,61
904,88	68393,61
905,32	68393,61
905,75	68393,61
906,18	68393,61
906,62	68393,61
907,05	68393,61
907,48	68393,61
907,92	68393,61
908,35	68393,61
908,79	68393,61
909,22	68393,61
909,65	68393,61
910,09	68393,61
910,52	68393,61
910,95	68393,61
911,38	68393,61
911,82	68393,61
912,25	68393,61
912,68	68393,61
913,12	68393,61
913,55	68393,61
913,98	68393,61
914,42	68393,61
914,85	68393,61
915,28	68393,61
915,72	68393,61
916,15	68393,61
916,58	68393,61
917,01	68393,61
917,45	68393,61
917,88	68393,61
918,31	68393,61
918,74	68393,61
919,18	68393,61
919,61	68393,61
920,04	68393,61
920,47	68393,61
920,91	68393,61
921,34	68393,61
921,77	68393,61
922,20	68393,61
922,64	68393,61
923,07	68393,61
923,50	68393,61
923,93	68393,61
924,37	68393,61
924,80	68393,61
925,23	68393,61
925,66	68393,61
926,09	68393,61
926,53	68393,61
926,96	68383,19
927,39	67809,83
927,82	66888,39
928,25	66058,54
928,69	65128,06
929,12	63567,44
929,55	60004,11
929,98	57505,74
930,41	52484,52
930,84	48919,12
931,28	43305,86
931,71	41072,64
932,14	36454,85
932,57	34884,27
933,00	31642,35
933,43	30257,38
933,86	30126,94
934,30	28118,61
934,73	32165,30
935,16	30829,55
935,59	28348,38
936,02	30333,96
936,45	29465,73
936,88	28223,42
937,31	31639,15
937,75	32786,82
938,18	35599,71
938,61	37203,98
939,04	37985,64
939,47	36773,55
939,90	33554,79
940,33	32899,82
940,76	30264,47
941,19	29476,34
941,62	27722,86
942,05	28613,60
942,48	25632,61
942,91	25163,78
943,35	27412,02
943,78	26317,70
944,21	26101,97
944,64	28158,13
945,07	28742,91
945,50	27997,59
945,93	29381,15
946,36	30764,96
946,79	30661,34
947,22	32574,45
947,65	32304,49
948,08	30045,79
948,51	31110,39
948,94	31126,37
949,37	31386,07
949,80	30656,37
950,23	31495,53
950,66	32394,22
951,09	32122,59
951,52	30666,66
951,95	32429,84
952,38	34222,82
952,81	37265,50
953,24	37997,89
953,67	39083,09
954,10	37332,78
954,53	39427,42
954,96	38208,75
955,39	38364,16
955,82	40291,70
956,25	39537,32
956,68	40399,97
957,11	41143,73
957,53	39158,95
957,96	38854,88
958,39	38429,44
958,82	37671,88
959,25	39202,66
959,68	41939,47
960,11	43180,56
960,54	44055,29
960,97	46298,78
961,40	48185,90
961,83	48653,96
962,26	48331,98
962,68	52886,04
963,11	52028,96
963,54	52226,34
963,97	52195,04
964,40	51322,49
964,83	51721,15
965,26	51112,34
965,69	50266,19
966,11	50732,97
966,54	50937,91
966,97	53848,96
967,40	55359,09
967,83	56745,02
968,26	56487,18
968,69	56695,51
969,11	57652,96
969,54	57375,57
969,97	58248,53
970,40	60064,06
970,83	59682,63
971,26	60681,19
971,68	60615,85
972,11	59780,82
972,54	60440,84
972,97	59300,61
973,40	57876,08
973,82	57160,77
974,25	55780,88
974,68	54335,22
975,11	53812,46
975,54	53288,39
975,96	53126,26
976,39	53672,40
976,82	54805,76
977,25	54374,67
977,67	54297,61
978,10	55370,90
978,53	55844,74
978,96	58382,62
979,38	59450,69
979,81	60220,14
980,24	62613,20
980,67	63630,06
981,09	63891,70
981,52	64141,84
981,95	63721,77
982,38	63991,74
982,80	63522,41
983,23	63923,50
983,66	63456,05
984,08	61788,76
984,51	60695,75
984,94	60252,56
985,37	59603,81
985,79	58340,76
986,22	57620,78
986,65	57537,92
987,07	57265,76
987,50	57705,13
987,93	58195,94
988,35	58691,34
988,78	59459,60
989,21	60080,81
989,63	61302,45
990,06	62271,78
990,49	62936,64
990,91	63929,25
991,34	63138,61
991,77	62614,33
992,19	62025,35
992,62	61062,07
993,05	60289,83
993,47	59340,72
993,90	58283,35
994,32	57193,30
994,75	56090,59
995,18	55220,37
995,60	54584,11
996,03	54092,25
996,45	54475,70
996,88	54438,83
997,31	53964,70
997,73	54491,19
998,16	54377,62
998,58	55617,02
999,01	55662,41
999,44	56205,41
999,86	57165,57
1000,29	56573,24
1000,71	56793,79
1001,14	56485,70
1001,56	55264,27
1001,99	54401,22
1002,41	53069,52
1002,84	51542,60
1003,27	50071,28
1003,69	49424,30
1004,12	48176,72
1004,54	48018,19
1004,97	47451,83
1005,39	46862,80
1005,82	47192,63
1006,24	47187,86
1006,67	47087,80
1007,09	46971,99
1007,52	47412,96
1007,94	47536,90
1008,37	49110,51
1008,79	48387,04
1009,22	48338,95
1009,64	48367,95
1010,07	48495,71
1010,49	48734,38
1010,92	48248,29
1011,34	48145,89
1011,77	47441,19
1012,19	46914,46
1012,62	46113,92
1013,04	44665,49
1013,46	44359,58
1013,89	42721,17
1014,31	42926,43
1014,74	42033,93
1015,16	41965,26
1015,59	41823,95
1016,01	42467,26
1016,44	42602,93
1016,86	49013,89
1017,28	43429,35
1017,71	43539,76
1018,13	45186,42
1018,56	44834,95
1018,98	45000,06
1019,40	44933,57
1019,83	45062,18
1020,25	45417,80
1020,68	45497,51
1021,10	45519,08
1021,52	45492,03
1021,95	46679,26
1022,37	45440,84
1022,79	44713,33
1023,22	44229,31
1023,64	43532,11
1024,07	42973,02
1024,49	42559,28
1024,91	41782,18
1025,34	41524,74
1025,76	42552,37
1026,18	41719,71
1026,61	41468,11
1027,03	41356,33
1027,45	41914,40
1027,88	41803,97
1028,30	43080,43
1028,72	42532,00
1029,15	42731,36
1029,57	42829,61
1029,99	43003,97
1030,41	41733,88
1030,84	41919,85
1031,26	41652,17
1031,68	40572,76
1032,11	40333,70
1032,53	39209,88
1032,95	38450,72
1033,37	37898,08
1033,80	37445,07
1034,22	36443,72
1034,64	36715,33
1035,06	35402,92
1035,49	35098,39
1035,91	34862,07
1036,33	34206,37
1036,75	34598,33
1037,18	34509,96
1037,60	34521,05
1038,02	34578,65
1038,44	34775,81
1038,87	34239,62
1039,29	34098,78
1039,71	34273,22
1040,13	33956,21
1040,55	34483,50
1040,98	34100,93
1041,40	33508,02
1041,82	33106,98
1042,24	32199,11
1042,66	31940,04
1043,09	30960,19
1043,51	30508,09
1043,93	30016,73
1044,35	29320,29
1044,77	29149,09
1045,20	28823,48
1045,62	28107,67
1046,04	28089,32
1046,46	28003,94
1046,88	27426,46
1047,30	27723,92
1047,72	27419,42
1048,15	27396,16
1048,57	26887,03
1048,99	26870,14
1049,41	26900,76
1049,83	26871,90
1050,25	27245,76
1050,67	26742,43
1051,09	26325,08
1051,52	26214,04
1051,94	25406,72
1052,36	25719,28
1052,78	24977,37
1053,20	25042,88
1053,62	24628,96
1054,04	24509,28
1054,46	24291,35
1054,88	24441,76
1055,30	23724,17
1055,72	23353,84
1056,14	22795,35
1056,57	23832,10
1056,99	21804,18
1057,41	21827,46
1057,83	21616,62
1058,25	21062,84
1058,67	20789,74
1059,09	20566,70
1059,51	20743,32
1059,93	20398,82
1060,35	20073,69
1060,77	20254,90
1061,19	20404,36
1061,61	19981,74
1062,03	19669,43
1062,45	19524,09
1062,87	19858,72
1063,29	19840,06
1063,71	19403,65
1064,13	19004,68
1064,55	18703,61
1064,97	19364,32
1065,39	18803,13
1065,81	18495,72
1066,23	18518,77
1066,65	18010,22
1067,07	18591,04
1067,49	17708,01
1067,91	17297,39
1068,33	17029,08
1068,75	17510,70
1069,17	17479,82
1069,59	17173,32
1070,00	16592,31
1070,42	16825,34
1070,84	16438,42
1071,26	16122,66
1071,68	15873,42
1072,10	16515,01
1072,52	16104,22
1072,94	15680,65
1073,36	15951,93
1073,78	15811,99
1074,20	15940,66
1074,62	15745,46
1075,03	15718,51
1075,45	15734,89
1075,87	15948,85
1076,29	15525,50
1076,71	15716,13
1077,13	15915,74
1077,55	14714,13
1077,97	15015,55
1078,38	14645,79
1078,80	14482,98
1079,22	14575,76
1079,64	14242,83
1080,06	13988,60
1080,48	14062,57
1080,89	13807,13
1081,31	13639,66
1081,73	13635,93
1082,15	13527,50
1082,57	13737,63
1082,99	13406,23
1083,40	13095,46
1083,82	13682,71
1084,24	12897,23
1084,66	12925,98
1085,08	13105,27
1085,49	12500,12
1085,91	13097,83
1086,33	21777,43
1086,75	12997,01
1087,17	12620,39
1087,58	12522,07
1088,00	12536,26
1088,42	12759,63
1088,84	12269,83
1089,25	11809,71
1089,67	11875,12
1090,09	11681,30
1090,51	11470,40
1090,92	11656,36
1091,34	11281,85
1091,76	11288,24
1092,18	11079,59
1092,59	11033,50
1093,01	10896,28
1093,43	10863,66
1093,84	10513,11
1094,26	10642,80
1094,68	10738,59
1095,10	10331,06
1095,51	10429,80
1095,93	10305,21
1096,35	10563,17
1096,76	10503,70
1097,18	10365,32
1097,60	10083,66
1098,01	9994,40
1098,43	9758,26
1098,85	9755,58
1099,26	9665,72
1099,68	9609,73
1100,10	9159,09
1100,51	9122,25
1100,93	9151,38
1101,35	9173,15
1101,76	9136,98
1102,18	11275,45
1102,60	9413,00
1103,01	8354,36
1103,43	8901,63
1103,84	8718,25
1104,26	8532,59
1104,68	8632,27
1105,09	8119,03
1105,51	8230,33
1105,92	8757,73
1106,34	7958,31
1106,76	8395,48
1107,17	8243,70
1107,59	8155,13
1108,00	7476,74
1108,42	7743,52
1108,83	7389,95
1109,25	7519,80
1109,67	7337,55
1110,08	7336,21
1110,50	7108,96
1110,91	7291,16
1111,33	6934,83
1111,74	6862,45
1112,16	7071,93
1112,57	7028,23
1112,99	6680,04
1113,41	6690,71
1113,82	6547,67
1114,24	6584,01
1114,65	6307,34
1115,07	6056,74
1115,48	5995,44
1115,90	2091,22
1116,31	2172,70
1116,73	2165,72
1117,14	2165,38
>>>>>End Processed Spectral Data<<<<<
