SpectraSuite Data File
++++++++++++++++++++++++++++++++++++
Date: Tue Oct 11 14:32:06 EEST 2016
User: OO Maya
Dark Spectrum Present: No
Reference Spectrum Present: No
Number of Sampled Component Spectra: 1
Spectrometers: MAYP11278
Integration Time (usec): 1600000 (MAYP11278)
Spectra Averaged: 3 (MAYP11278)
Boxcar Smoothing: 0 (MAYP11278)
Correct for Electrical Dark: No (MAYP11278)
Strobe/Lamp Enabled: No (MAYP11278)
Correct for Detector Non-linearity: Yes (MAYP11278)
Correct for Stray Light: No (MAYP11278)
Number of Pixels in Processed Spectrum: 2068
>>>>>Begin Processed Spectral Data<<<<<
187,82	2262,50
188,30	2196,98
188,78	2158,40
189,26	2163,39
189,73	2830,55
190,21	2890,08
190,69	2860,15
191,17	2873,45
191,64	2955,61
192,12	2875,12
192,60	2869,46
193,07	2810,26
193,55	2884,10
194,03	2874,12
194,51	2889,09
194,98	2880,11
195,46	2949,95
195,94	2861,81
196,42	2893,08
196,89	3082,99
197,37	2898,73
197,85	2855,49
198,32	2885,09
198,80	2861,48
199,28	2918,02
199,76	2945,96
200,23	2867,47
200,71	2882,10
201,19	2955,61
201,66	2944,30
202,14	2927,33
202,62	2851,50
203,09	2928,33
203,57	2853,83
204,05	2967,25
204,53	2991,86
205,00	2880,44
205,48	2878,78
205,96	2995,52
206,43	2881,10
206,91	2929,00
207,39	3079,00
207,86	2913,03
208,34	2943,63
208,82	2915,03
209,29	2969,91
209,77	2943,96
210,25	2896,74
210,72	2902,39
211,20	2939,64
211,68	2918,69
212,15	2875,78
212,63	3048,40
213,11	2944,63
213,58	2882,43
214,06	3056,72
214,53	2933,32
215,01	3010,82
215,49	2949,95
215,96	2965,92
216,44	2982,88
216,92	2957,93
217,39	2876,45
217,87	2900,73
218,35	3018,47
218,82	2836,20
219,30	2902,39
219,77	2872,12
220,25	2931,33
220,73	3087,98
221,20	2907,05
221,68	2984,54
222,15	2886,09
222,63	2987,20
223,11	2894,74
223,58	2988,20
224,06	2913,70
224,53	2926,67
225,01	2874,78
225,49	2915,36
225,96	2865,47
226,44	2936,31
226,91	2987,53
227,39	2904,72
227,87	3010,82
228,34	2972,57
228,82	2982,88
229,29	2915,03
229,77	2937,98
230,24	2908,04
230,72	2980,55
231,20	3020,13
231,67	2925,34
232,15	2944,63
232,62	2880,77
233,10	2948,29
233,57	2946,96
234,05	3191,09
234,53	2958,60
235,00	2895,41
235,48	2885,09
235,95	2871,79
236,43	2978,55
236,90	3072,02
237,38	2915,03
237,85	2960,93
238,33	2947,29
238,80	2942,63
239,28	2923,01
239,75	2863,81
240,23	2978,55
240,71	3009,82
241,18	2962,26
241,66	2914,03
242,13	3006,83
242,61	2991,86
243,08	2873,79
243,56	2890,75
244,03	2975,56
244,51	3013,81
244,98	2921,68
245,46	3022,13
245,93	6365,33
246,41	2837,87
246,88	2925,01
247,36	2939,97
247,83	2948,29
248,31	2955,61
248,78	2836,20
249,26	2937,31
249,73	3002,17
250,21	2972,90
250,68	3035,76
251,16	2931,33
251,63	3072,35
252,10	3030,11
252,58	2891,75
253,05	3037,76
253,53	2947,62
254,00	2925,67
254,48	2941,64
254,95	2968,24
255,43	2992,19
255,90	2897,40
256,38	2955,61
256,85	2972,90
257,33	2996,51
257,80	3164,48
258,27	2956,94
258,75	2904,05
259,22	2956,94
259,70	2990,86
260,17	3059,04
260,65	2947,29
261,12	2913,03
261,59	3008,49
262,07	2895,41
262,54	2953,94
263,02	2941,64
263,49	2873,79
263,97	2995,85
264,44	3014,48
264,91	2939,97
265,39	2945,29
265,86	2955,27
266,34	2969,57
266,81	2930,00
267,28	2935,98
267,76	2970,24
268,23	2978,55
268,71	2835,54
269,18	2877,45
269,65	2916,36
270,13	2994,52
270,60	3027,11
271,08	2925,34
271,55	2951,28
272,02	2867,13
272,50	2873,79
272,97	2823,23
273,44	2945,96
273,92	3206,06
274,39	2989,86
274,87	3003,17
275,34	2908,04
275,81	2930,33
276,29	2977,89
276,76	3000,84
277,23	2860,48
277,71	2931,99
278,18	2880,44
278,65	3250,96
279,13	2905,05
279,60	2890,75
280,07	3220,69
280,55	2998,84
281,02	3182,77
281,50	2885,43
281,97	3008,49
282,44	2934,32
282,91	2911,04
283,39	2982,88
283,86	2889,42
284,33	2873,45
284,81	2986,87
285,28	2914,36
285,75	2966,91
286,23	2982,88
286,70	2864,14
287,17	2972,24
287,65	3044,41
288,12	2914,03
288,59	2986,87
289,07	2827,89
289,54	3046,07
290,01	2891,75
290,48	2964,59
290,96	2925,67
291,43	2995,18
291,90	3106,94
292,38	2884,76
292,85	3010,15
293,32	2925,01
293,79	2970,57
294,27	2963,59
294,74	2893,41
295,21	2946,63
295,69	2960,93
296,16	3071,02
296,63	3053,72
297,10	2993,19
297,58	2947,29
298,05	2972,24
298,52	2896,40
298,99	3053,06
299,47	2927,33
299,94	2975,56
300,41	2928,33
300,88	3014,81
301,36	3000,84
301,83	3001,84
302,30	2890,42
302,77	2995,18
303,25	2982,88
303,72	2907,38
304,19	2909,71
304,66	2903,39
305,13	2943,96
305,61	2966,91
306,08	2937,64
306,55	2997,85
307,02	2939,31
307,49	2930,99
307,97	2961,92
308,44	2914,03
308,91	3003,83
309,38	2998,18
309,86	2960,59
310,33	2970,90
310,80	2961,92
311,27	2922,01
311,74	3000,17
312,21	2940,64
312,69	3090,97
313,16	2896,74
313,63	2923,34
314,10	2958,60
314,57	2921,68
315,05	2915,69
315,52	2997,51
315,99	2985,54
316,46	2951,95
316,93	3002,17
317,40	2960,59
317,88	3153,17
318,35	2934,32
318,82	2941,64
319,29	2865,80
319,76	2982,55
320,23	3068,69
320,70	3009,49
321,18	2958,93
321,65	2854,16
322,12	2886,43
322,59	3074,34
323,06	2930,99
323,53	3127,23
324,00	2871,46
324,48	2981,22
324,95	2938,64
325,42	2923,01
325,89	2923,34
326,36	2931,99
326,83	2975,56
327,30	3005,16
327,77	2981,88
328,24	2959,60
328,72	2932,32
329,19	2918,35
329,66	2931,33
330,13	2912,70
330,60	3005,49
331,07	2991,53
331,54	3078,33
332,01	2921,02
332,48	3078,33
332,95	2992,52
333,43	2983,54
333,90	3048,73
334,37	2956,27
334,84	2982,55
335,31	3219,69
335,78	2883,10
336,25	2953,61
336,72	2928,00
337,19	2977,22
337,66	2931,33
338,13	2936,31
338,60	3044,08
339,07	3015,81
339,54	2879,77
340,01	2898,73
340,49	2917,02
340,96	2981,88
341,43	3025,78
341,90	2925,01
342,37	2973,23
342,84	3014,48
343,31	2967,25
343,78	2938,98
344,25	2943,96
344,72	2916,36
345,19	2953,61
345,66	2996,85
346,13	2922,35
346,60	2892,08
347,07	3060,37
347,54	2920,02
348,01	3024,12
348,48	2966,25
348,95	2862,48
349,42	2960,59
349,89	3014,81
350,36	2967,25
350,83	2911,04
351,30	2976,23
351,77	3095,96
352,24	2979,88
352,71	2952,28
353,18	2974,56
353,65	2983,54
354,12	2958,93
354,59	3010,48
355,06	2965,92
355,53	3058,05
356,00	2917,36
356,47	3041,08
356,94	2885,43
357,41	3177,78
357,88	3009,15
358,35	2848,18
358,82	2893,74
359,28	2916,69
359,75	2939,64
360,22	2997,51
360,69	3063,04
361,16	2933,32
361,63	2936,65
362,10	2951,61
362,57	2921,68
363,04	2967,25
363,51	3119,25
363,98	3007,16
364,45	2908,38
364,92	2983,88
365,39	2920,35
365,86	2893,08
366,32	2965,92
366,79	2950,95
367,26	4271,24
367,73	2836,20
368,20	2890,08
368,67	3018,47
369,14	2881,77
369,61	3001,84
370,08	2978,89
370,55	2913,03
371,02	4367,07
371,48	2942,30
371,95	2924,01
372,42	2862,15
372,89	2927,33
373,36	2939,64
373,83	2881,44
374,30	2901,72
374,77	2971,24
375,23	2866,47
375,70	3056,05
376,17	2927,67
376,64	2889,75
377,11	2895,41
377,58	2983,54
378,05	2975,56
378,51	2949,95
378,98	2962,59
379,45	2927,00
379,92	2997,85
380,39	3121,91
380,86	2949,95
381,33	3044,08
381,79	3036,76
382,26	2867,47
382,73	2984,21
383,20	2915,36
383,67	3029,77
384,14	2972,57
384,60	3350,41
385,07	2950,95
385,54	2923,01
386,01	2938,64
386,48	3082,66
386,94	2892,74
387,41	2883,43
387,88	3015,14
388,35	2975,89
388,82	3024,45
389,28	2909,71
389,75	2998,18
390,22	2975,56
390,69	2996,51
391,16	2984,21
391,62	2961,92
392,09	2971,90
392,56	2937,64
393,03	2942,63
393,50	3128,56
393,96	2950,95
394,43	3034,76
394,90	2902,72
395,37	3010,15
395,83	3313,16
396,30	2866,14
396,77	2989,53
397,24	2994,52
397,70	2887,76
398,17	2955,61
398,64	2919,35
399,11	2892,41
399,57	3038,76
400,04	2896,07
400,51	2965,92
400,98	2926,67
401,44	2989,86
401,91	2972,90
402,38	2955,61
402,84	2884,43
403,31	3058,38
403,78	2948,29
404,25	3070,02
404,71	3093,63
405,18	3053,72
405,65	2904,39
406,12	2994,52
406,58	2993,19
407,05	3096,63
407,52	2962,59
407,98	2979,55
408,45	3001,84
408,92	2913,37
409,38	3034,76
409,85	2907,38
410,32	3033,77
410,78	2912,37
411,25	3046,74
411,72	2931,33
412,18	2854,83
412,65	2984,87
413,12	2930,66
413,59	2978,22
414,05	2988,53
414,52	3071,68
414,98	2939,64
415,45	3086,32
415,92	2980,55
416,38	2958,27
416,85	3082,33
417,32	2977,56
417,78	2950,95
418,25	2974,23
418,72	2961,59
419,18	3010,48
419,65	2903,39
420,12	3016,80
420,58	2891,41
421,05	2961,26
421,51	2921,68
421,98	3003,17
422,45	2927,67
422,91	2968,58
423,38	2986,20
423,85	2990,20
424,31	2939,64
424,78	3024,12
425,24	2957,27
425,71	3034,76
426,18	2929,33
426,64	3039,42
427,11	3006,49
427,57	3010,82
428,04	2891,41
428,51	3019,13
428,97	2987,53
429,44	2960,59
429,90	2975,89
430,37	3217,37
430,83	2885,09
431,30	2939,97
431,77	3058,38
432,23	3041,75
432,70	2956,94
433,16	2933,65
433,63	2968,91
434,09	2940,64
434,56	2976,89
435,03	2892,41
435,49	3001,50
435,96	2969,24
436,42	2883,10
436,89	3030,11
437,35	2970,24
437,82	2968,24
438,28	2906,38
438,75	2946,29
439,21	3283,22
439,68	2972,57
440,14	3019,13
440,61	3048,07
441,07	2895,41
441,54	2939,97
442,00	3122,57
442,47	2907,38
442,94	2967,58
443,40	3002,17
443,87	2879,44
444,33	3099,95
444,80	2989,53
445,26	2954,94
445,73	2972,24
446,19	2973,23
446,65	2931,33
447,12	2987,20
447,58	2914,03
448,05	2924,67
448,51	3014,48
448,98	3011,81
449,44	2949,95
449,91	2910,04
450,37	2917,36
450,84	2931,99
451,30	2979,88
451,77	3002,17
452,23	2907,71
452,70	3035,10
453,16	2962,92
453,62	2951,95
454,09	2960,26
454,55	3014,48
455,02	2911,37
455,48	2966,91
455,95	3016,14
456,41	2921,68
456,88	3068,36
457,34	2935,65
457,80	2956,27
458,27	2886,43
458,73	2975,23
459,20	2961,26
459,66	3018,47
460,13	2941,97
460,59	2900,06
461,05	3060,04
461,52	3029,77
461,98	2908,04
462,45	2880,77
462,91	3038,76
463,37	2962,92
463,84	2972,57
464,30	2972,90
464,76	2910,04
465,23	2915,36
465,69	3030,11
466,16	2976,89
466,62	2999,84
467,08	3015,14
467,55	2947,62
468,01	2991,19
468,48	2995,85
468,94	2965,58
469,40	2909,71
469,87	3025,45
470,33	2969,24
470,79	2922,35
471,26	2931,33
471,72	2896,74
472,18	2946,96
472,65	2940,97
473,11	3046,07
473,57	2958,93
474,04	2916,36
474,50	2969,91
474,96	2890,08
475,43	2990,86
475,89	2961,59
476,35	2997,51
476,82	2946,96
477,28	2951,28
477,74	3062,70
478,21	2981,55
478,67	3029,44
479,13	2908,38
479,59	3106,94
480,06	3001,50
480,52	2965,58
480,98	2921,02
481,45	2960,93
481,91	2978,55
482,37	2898,40
482,84	2945,63
483,30	2870,79
483,76	2941,97
484,22	3068,36
484,69	2974,90
485,15	2967,91
485,61	2865,14
486,07	2943,96
486,54	2873,45
487,00	2968,58
487,46	2855,16
487,92	2879,44
488,39	2919,35
488,85	2967,25
489,31	2957,60
489,77	3018,13
490,24	2892,74
490,70	2979,22
491,16	2875,45
491,62	2903,72
492,09	2852,50
492,55	3028,11
493,01	2983,54
493,47	2956,27
493,94	2937,64
494,40	2918,02
494,86	2911,04
495,32	2885,76
495,78	2964,59
496,25	2918,02
496,71	2945,96
497,17	3105,94
497,63	3011,81
498,09	2902,06
498,56	2959,93
499,02	2927,67
499,48	3128,23
499,94	2960,26
500,40	2919,35
500,87	2950,28
501,33	2930,33
501,79	3003,83
502,25	2947,96
502,71	3352,08
503,17	2931,66
503,64	2999,51
504,10	2916,03
504,56	2965,25
505,02	2972,24
505,48	2903,72
505,94	2943,30
506,40	3028,44
506,87	2959,93
507,33	2980,55
507,79	2990,20
508,25	2917,36
508,71	2920,68
509,17	2867,13
509,63	2928,33
510,10	2955,27
510,56	2907,05
511,02	3035,10
511,48	3040,09
511,94	2911,37
512,40	2867,47
512,86	2908,71
513,32	2996,51
513,78	2850,84
514,25	3021,46
514,71	3921,90
515,17	2834,21
515,63	2989,20
516,09	3038,42
516,55	3009,15
517,01	3148,18
517,47	2973,23
517,93	2968,24
518,39	3237,99
518,85	2959,93
519,32	2908,38
519,78	2883,10
520,24	2898,40
520,70	2983,88
521,16	3010,48
521,62	3005,49
522,08	2953,28
522,54	2884,76
523,00	3105,61
523,46	3010,15
523,92	2929,66
524,38	3124,23
524,84	2979,22
525,30	3009,15
525,76	3034,76
526,22	2984,54
526,68	2958,60
527,14	2964,25
527,60	2944,96
528,06	3002,17
528,52	3004,16
528,98	2924,67
529,44	2911,04
529,90	2995,85
530,36	2997,18
530,82	2887,76
531,28	3021,46
531,74	2933,32
532,20	2948,95
532,66	2954,94
533,12	2991,86
533,58	2932,32
534,04	2903,39
534,50	2946,29
534,96	2911,70
535,42	2970,57
535,88	2923,01
536,34	2993,85
536,80	2905,38
537,26	3001,50
537,72	2951,61
538,18	2959,93
538,64	3075,34
539,10	2995,52
539,56	3390,99
540,02	2861,81
540,48	3078,33
540,94	2956,94
541,40	2886,43
541,86	2981,22
542,32	2993,85
542,78	2927,00
543,24	3163,81
543,69	2878,78
544,15	3137,54
544,61	3011,81
545,07	2947,29
545,53	2912,37
545,99	3015,14
546,45	2944,63
546,91	3009,49
547,37	3006,83
547,83	2978,55
548,29	2961,92
548,74	2915,36
549,20	2898,07
549,66	3111,26
550,12	2922,68
550,58	2893,08
551,04	2988,20
551,50	2975,23
551,96	3106,27
552,42	2977,22
552,87	2909,04
553,33	2990,86
553,79	2938,64
554,25	2898,73
554,71	2978,22
555,17	2952,61
555,63	3103,95
556,08	2973,23
556,54	3047,40
557,00	2850,17
557,46	2974,90
557,92	3121,24
558,38	2927,00
558,83	2939,64
559,29	2915,03
559,75	2910,70
560,21	2893,41
560,67	2960,59
561,13	2938,98
561,58	2951,61
562,04	2914,36
562,50	2905,38
562,96	2954,94
563,42	3036,09
563,87	2896,74
564,33	2973,23
564,79	2932,99
565,25	2934,98
565,71	2972,24
566,16	3034,10
566,62	2933,32
567,08	2916,69
567,54	2964,92
568,00	3022,79
568,45	2906,38
568,91	2944,96
569,37	3018,80
569,83	2959,93
570,28	2961,92
570,74	3010,82
571,20	2988,86
571,66	2939,97
572,11	2978,89
572,57	2977,89
573,03	2913,70
573,49	2924,34
573,94	2969,24
574,40	3058,38
574,86	3008,82
575,32	2887,09
575,77	2973,57
576,23	2838,86
576,69	3036,43
577,15	2933,99
577,60	2941,64
578,06	2893,08
578,52	3059,71
578,97	2977,22
579,43	2912,03
579,89	2982,55
580,34	2967,91
580,80	2934,98
581,26	2960,26
581,72	2985,54
582,17	2934,98
582,63	2893,74
583,09	2940,97
583,54	2982,21
584,00	2936,65
584,46	2983,54
584,91	2907,38
585,37	3165,48
585,83	2923,68
586,28	2928,66
586,74	2956,94
587,20	2942,30
587,65	3020,79
588,11	2883,10
588,57	2987,20
589,02	2925,01
589,48	2919,68
589,94	2980,55
590,39	3016,47
590,85	2936,65
591,30	2887,09
591,76	3042,75
592,22	2911,37
592,67	2987,20
593,13	2959,93
593,59	3018,13
594,04	2958,93
594,50	2948,29
594,95	3047,40
595,41	2935,32
595,87	2905,05
596,32	3070,02
596,78	3010,48
597,23	3028,78
597,69	2965,58
598,15	2886,76
598,60	2952,28
599,06	3047,40
599,51	2919,02
599,97	3006,83
600,43	3047,74
600,88	2986,54
601,34	3000,51
601,79	2881,77
602,25	3187,10
602,70	2927,67
603,16	2949,95
603,61	2900,39
604,07	2861,15
604,53	2994,85
604,98	2942,30
605,44	3006,83
605,89	2974,23
606,35	2858,82
606,80	2958,60
607,26	2937,98
607,71	2971,57
608,17	2987,20
608,62	2964,25
609,08	3138,20
609,53	3034,10
609,99	2953,28
610,44	2931,66
610,90	2978,89
611,35	2893,41
611,81	3083,32
612,26	3003,83
612,72	2985,21
613,17	3209,38
613,63	2875,45
614,08	2872,79
614,54	2889,75
614,99	2880,44
615,45	2942,30
615,90	2959,60
616,36	2904,72
616,81	2940,31
617,27	2940,64
617,72	3016,47
618,18	2932,99
618,63	2934,32
619,09	2944,96
619,54	3000,84
619,99	2953,28
620,45	3015,14
620,90	3040,75
621,36	2952,28
621,81	3031,11
622,27	3062,04
622,72	3024,12
623,18	2911,37
623,63	2921,35
624,08	3020,13
624,54	2884,76
624,99	2932,32
625,45	2964,25
625,90	2893,41
626,35	2945,63
626,81	2974,90
627,26	2901,39
627,72	3011,48
628,17	3019,13
628,62	2846,85
629,08	2936,98
629,53	2954,27
629,99	2906,05
630,44	2990,86
630,89	2947,62
631,35	3002,17
631,80	2995,52
632,26	3019,46
632,71	2906,38
633,16	2933,65
633,62	2897,40
634,07	2930,99
634,52	2885,43
634,98	2940,64
635,43	2894,41
635,88	2872,12
636,34	2966,25
636,79	2947,62
637,24	2885,76
637,70	3024,12
638,15	3020,79
638,60	2917,69
639,06	2938,64
639,51	2901,39
639,96	2862,48
640,42	2952,61
640,87	3028,78
641,32	2871,46
641,78	2909,04
642,23	2930,66
642,68	2882,43
643,14	2918,02
643,59	2991,53
644,04	2913,37
644,49	2888,75
644,95	2927,67
645,40	2881,10
645,85	2948,95
646,31	2963,25
646,76	2999,84
647,21	3010,15
647,66	2953,94
648,12	2960,26
648,57	2870,13
649,02	3045,07
649,47	2986,54
649,93	3257,28
650,38	2880,11
650,83	2906,71
651,28	2913,70
651,74	2960,59
652,19	2881,77
652,64	2940,97
653,09	2890,75
653,55	2916,69
654,00	2957,27
654,45	2968,91
654,90	2951,95
655,35	2878,78
655,81	2982,21
656,26	2892,08
656,71	2938,31
657,16	2976,56
657,62	2998,51
658,07	2885,43
658,52	2955,27
658,97	2894,74
659,42	3316,15
659,88	2921,68
660,33	3037,09
660,78	2941,97
661,23	2893,74
661,68	2967,91
662,13	2895,07
662,59	2849,84
663,04	2967,25
663,49	2913,03
663,94	2902,39
664,39	2943,30
664,84	2893,08
665,30	2952,61
665,75	2877,78
666,20	2979,55
666,65	2962,92
667,10	3176,12
667,55	3050,73
668,00	2915,03
668,46	2974,23
668,91	2892,08
669,36	3126,23
669,81	2827,22
670,26	2904,05
670,71	3046,74
671,16	2948,29
671,61	3052,39
672,06	3156,50
672,52	2949,62
672,97	2966,25
673,42	3028,44
673,87	3222,02
674,32	2960,59
674,77	2972,90
675,22	2859,82
675,67	2891,08
676,12	2961,26
676,57	2916,36
677,02	2921,68
677,47	2915,03
677,93	3168,80
678,38	2904,72
678,83	2931,66
679,28	2946,63
679,73	2910,70
680,18	2951,28
680,63	2929,00
681,08	2820,24
681,53	2842,52
681,98	2915,69
682,43	2952,61
682,88	3011,48
683,33	2979,55
683,78	2980,22
684,23	3040,42
684,68	2977,56
685,13	2966,91
685,58	2974,23
686,03	2925,01
686,48	2882,43
686,93	2951,28
687,38	2901,72
687,83	2959,60
688,28	2943,63
688,73	3147,18
689,18	2964,92
689,63	2846,85
690,08	2922,68
690,53	2928,00
690,98	2867,80
691,43	2934,32
691,88	2860,15
692,33	2948,95
692,78	2912,37
693,23	2992,86
693,68	2981,55
694,13	2940,97
694,58	2944,96
695,03	3346,75
695,48	2954,61
695,93	2946,29
696,38	3096,30
696,83	2926,34
697,28	2882,77
697,72	2955,61
698,17	2901,72
698,62	3000,51
699,07	3000,51
699,52	2888,75
699,97	2926,34
700,42	2988,53
700,87	3005,49
701,32	3269,92
701,77	2873,12
702,22	3082,66
702,67	2906,05
703,11	2927,33
703,56	2952,61
704,01	2926,67
704,46	2917,02
704,91	3030,44
705,36	3007,16
705,81	3016,80
706,26	2888,42
706,70	2992,19
707,15	2961,92
707,60	2932,32
708,05	2982,55
708,50	3003,17
708,95	2954,94
709,40	2922,01
709,84	2937,31
710,29	2942,30
710,74	2910,37
711,19	2989,20
711,64	2967,25
712,09	2952,28
712,53	2891,08
712,98	3110,60
713,43	2930,00
713,88	2970,57
714,33	3055,72
714,78	3010,82
715,22	2924,01
715,67	2965,58
716,12	2911,37
716,57	2920,35
717,02	2884,10
717,46	2873,79
717,91	2965,58
718,36	3080,33
718,81	2866,14
719,26	2874,45
719,70	2957,27
720,15	2915,36
720,60	2897,40
721,05	2958,93
721,49	2912,37
721,94	2980,55
722,39	2962,26
722,84	2879,11
723,28	2851,17
723,73	2933,32
724,18	2847,84
724,63	2991,86
725,07	2860,82
725,52	2942,30
725,97	2934,32
726,42	2950,95
726,86	3085,65
727,31	2874,45
727,76	3030,11
728,21	2973,57
728,65	2933,99
729,10	3037,09
729,55	2908,38
729,99	3005,49
730,44	2881,77
730,89	2938,98
731,33	2979,55
731,78	2968,58
732,23	2956,27
732,68	2888,42
733,12	3005,16
733,57	2970,90
734,02	2913,37
734,46	2986,20
734,91	3010,15
735,36	2956,60
735,80	3184,10
736,25	2880,11
736,70	2970,24
737,14	3017,80
737,59	2985,54
738,04	2962,92
738,48	2917,02
738,93	2966,91
739,37	2867,13
739,82	3034,10
740,27	2981,55
740,71	2887,42
741,16	2981,55
741,61	2996,18
742,05	2943,63
742,50	2938,64
742,94	2893,08
743,39	2893,08
743,84	2951,28
744,28	3039,42
744,73	3004,16
745,18	2981,22
745,62	3004,83
746,07	3056,72
746,51	2829,22
746,96	2885,76
747,40	2865,80
747,85	2959,60
748,30	2935,32
748,74	2910,70
749,19	2970,24
749,63	3184,10
750,08	2946,63
750,52	2926,00
750,97	2863,14
751,42	2929,00
751,86	2918,35
752,31	2920,02
752,75	3097,63
753,20	2904,39
753,64	2931,66
754,09	2855,49
754,53	2929,33
754,98	2885,43
755,42	2919,68
755,87	2939,64
756,31	3026,78
756,76	2901,39
757,20	3048,07
757,65	2940,97
758,09	2928,66
758,54	2922,68
758,98	2933,32
759,43	2879,11
759,87	2906,38
760,32	2943,96
760,76	2917,69
761,21	2976,56
761,65	3026,78
762,10	2895,74
762,54	2863,48
762,99	2921,68
763,43	2978,22
763,88	2920,02
764,32	2867,13
764,77	2902,39
765,21	2956,27
765,66	2867,47
766,10	2863,81
766,54	2903,05
766,99	2936,98
767,43	2948,62
767,88	2950,28
768,32	2987,87
768,77	2946,63
769,21	3102,61
769,66	2889,42
770,10	2928,00
770,54	2889,09
770,99	2863,48
771,43	2980,55
771,88	2955,94
772,32	2983,21
772,76	2839,86
773,21	2910,70
773,65	2919,02
774,10	2845,85
774,54	2941,97
774,98	2891,75
775,43	2950,62
775,87	2948,29
776,31	2859,82
776,76	2929,66
777,20	2902,39
777,65	2976,89
778,09	2992,19
778,53	2910,70
778,98	2967,25
779,42	3180,78
779,86	3054,05
780,31	2956,60
780,75	3017,80
781,19	2974,56
781,64	2894,07
782,08	2947,29
782,52	2882,43
782,97	2935,32
783,41	2990,86
783,85	2999,18
784,30	2935,98
784,74	2918,35
785,18	2902,72
785,63	2879,11
786,07	2998,84
786,51	3015,47
786,95	3029,11
787,40	2895,74
787,84	2906,05
788,28	2951,28
788,73	3113,26
789,17	2924,34
789,61	2904,39
790,05	2932,32
790,50	2881,10
790,94	2889,09
791,38	2998,18
791,82	2903,72
792,27	2938,31
792,71	2896,07
793,15	3292,20
793,59	3005,83
794,04	2951,95
794,48	2959,60
794,92	2937,64
795,36	2881,77
795,81	2975,89
796,25	2925,67
796,69	2939,31
797,13	2892,08
797,57	2880,44
798,02	2948,62
798,46	3024,12
798,90	2961,59
799,34	2890,42
799,79	3064,70
800,23	2953,94
800,67	2883,76
801,11	2972,24
801,55	2959,93
801,99	2883,10
802,44	3002,17
802,88	3067,69
803,32	2992,86
803,76	2950,95
804,20	2923,68
804,64	2906,71
805,09	3080,66
805,53	3109,93
805,97	3077,34
806,41	2977,56
806,85	3113,26
807,29	2927,00
807,74	2941,97
808,18	2889,75
808,62	2968,91
809,06	2942,97
809,50	2892,41
809,94	2864,81
810,38	2962,26
810,82	3043,08
811,27	3224,02
811,71	2906,71
812,15	2907,38
812,59	2990,53
813,03	3081,33
813,47	3002,17
813,91	2972,90
814,35	3010,82
814,79	2983,88
815,23	2953,94
815,67	2913,37
816,12	2903,72
816,56	2895,41
817,00	2992,86
817,44	2923,34
817,88	3016,14
818,32	2901,06
818,76	2961,59
819,20	3018,47
819,64	2918,69
820,08	2985,21
820,52	2921,68
820,96	2936,98
821,40	2894,41
821,84	3059,38
822,28	2873,45
822,72	2952,94
823,16	2966,91
823,60	2859,49
824,04	2957,93
824,48	2954,94
824,92	2948,95
825,36	2964,92
825,80	2877,11
826,24	2917,02
826,68	2820,24
827,12	2954,27
827,56	2990,53
828,00	3019,46
828,44	2888,75
828,88	3000,17
829,32	2969,24
829,76	2892,74
830,20	3048,07
830,64	2927,33
831,08	3120,24
831,52	3004,50
831,96	3001,17
832,40	2871,13
832,84	2927,67
833,28	2917,36
833,72	3032,44
834,16	2988,86
834,60	2937,98
835,04	2892,41
835,48	3007,16
835,91	2935,65
836,35	2973,90
836,79	2936,31
837,23	3017,80
837,67	2889,09
838,11	2912,70
838,55	2961,92
838,99	2935,32
839,43	3055,39
839,87	3099,62
840,30	2938,98
840,74	3035,43
841,18	2840,86
841,62	2908,04
842,06	2900,06
842,50	2902,39
842,94	2974,90
843,38	2941,64
843,81	2980,88
844,25	2932,99
844,69	2892,08
845,13	3001,84
845,57	2920,68
846,01	3010,15
846,45	2904,05
846,88	2893,41
847,32	2944,96
847,76	2893,74
848,20	2916,03
848,64	2909,71
849,08	2989,53
849,51	3040,42
849,95	2972,24
850,39	2912,70
850,83	2989,86
851,27	2871,13
851,70	2965,92
852,14	3014,14
852,58	2908,38
853,02	2921,68
853,46	2997,85
853,89	2868,47
854,33	3011,81
854,77	2864,14
855,21	2885,43
855,65	3013,48
856,08	3053,72
856,52	2948,29
856,96	2974,90
857,40	2958,60
857,83	2867,80
858,27	3012,81
858,71	2845,85
859,15	2890,75
859,58	2901,72
860,02	2922,68
860,46	2945,63
860,89	3005,83
861,33	2900,73
861,77	2952,94
862,21	2976,89
862,64	2903,05
863,08	2906,71
863,52	2989,86
863,95	2887,76
864,39	2931,66
864,83	2942,30
865,27	2845,85
865,70	2925,34
866,14	2846,85
866,58	2988,53
867,01	2882,77
867,45	2959,26
867,89	2910,37
868,32	2898,73
868,76	2960,59
869,20	2936,98
869,63	3052,39
870,07	3169,47
870,51	2858,82
870,94	2914,03
871,38	2941,97
871,82	2906,71
872,25	2954,94
872,69	2973,23
873,13	2941,30
873,56	3023,46
874,00	3008,49
874,43	2935,98
874,87	2892,74
875,31	3027,45
875,74	2832,88
876,18	2955,27
876,61	2916,69
877,05	2947,96
877,49	2942,63
877,92	2917,36
878,36	2968,58
878,79	2924,67
879,23	3058,71
879,67	2886,43
880,10	2873,79
880,54	2913,37
880,97	2937,31
881,41	2999,84
881,84	2931,33
882,28	2916,69
882,72	2924,67
883,15	2914,03
883,59	2887,42
884,02	2982,88
884,46	2960,26
884,89	2955,94
885,33	2986,87
885,76	2898,07
886,20	2894,07
886,63	3063,04
887,07	2888,75
887,50	2879,11
887,94	2921,35
888,37	2909,04
888,81	3220,36
889,24	2870,46
889,68	2998,18
890,11	2893,41
890,55	2963,25
890,98	2969,24
891,42	2854,83
891,85	2891,08
892,29	2908,38
892,72	2854,50
893,16	2893,41
893,59	2955,94
894,03	2900,39
894,46	2972,90
894,90	2907,71
895,33	2860,15
895,77	2938,31
896,20	2980,22
896,63	2889,09
897,07	2889,75
897,50	2871,46
897,94	2941,64
898,37	3013,48
898,81	2904,05
899,24	2885,43
899,68	2879,11
900,11	2998,18
900,54	2956,60
900,98	2879,11
901,41	3085,98
901,85	3086,65
902,28	2888,75
902,71	2903,39
903,15	3060,04
903,58	2915,36
904,02	2961,59
904,45	2887,09
904,88	2908,04
905,32	2871,13
905,75	3016,80
906,18	2933,99
906,62	3001,50
907,05	2944,63
907,48	2911,37
907,92	2982,55
908,35	3030,44
908,79	2902,72
909,22	2846,18
909,65	2936,98
910,09	2939,97
910,52	2916,36
910,95	2885,76
911,38	2910,04
911,82	2954,61
912,25	2915,36
912,68	2964,92
913,12	2964,25
913,55	2920,35
913,98	2838,20
914,42	2873,79
914,85	2915,36
915,28	2911,37
915,72	3004,83
916,15	2896,74
916,58	2994,19
917,01	2896,74
917,45	3000,51
917,88	2895,07
918,31	2932,66
918,74	2923,34
919,18	2956,60
919,61	2991,53
920,04	2922,68
920,47	3056,05
920,91	2965,25
921,34	2907,05
921,77	2876,78
922,20	2845,85
922,64	2941,64
923,07	3045,74
923,50	2971,57
923,93	2838,53
924,37	3000,51
924,80	2864,14
925,23	2978,55
925,66	3108,60
926,09	2920,02
926,53	2970,57
926,96	2864,81
927,39	3105,61
927,82	2925,67
928,25	2868,47
928,69	2989,20
929,12	2902,06
929,55	2940,64
929,98	2996,18
930,41	2866,80
930,84	2947,62
931,28	2829,55
931,71	3052,06
932,14	3006,83
932,57	3151,84
933,00	2913,03
933,43	3016,47
933,86	2970,57
934,30	2967,58
934,73	2966,91
935,16	2853,50
935,59	2918,02
936,02	2893,74
936,45	2963,92
936,88	2861,48
937,31	2979,88
937,75	2891,41
938,18	2919,68
938,61	2962,92
939,04	2878,11
939,47	2927,33
939,90	3016,80
940,33	3116,58
940,76	2893,08
941,19	3003,50
941,62	2876,11
942,05	2907,71
942,48	2976,23
942,91	2868,13
943,35	2844,19
943,78	2973,90
944,21	2966,91
944,64	2963,59
945,07	2929,33
945,50	2927,33
945,93	2948,95
946,36	3021,13
946,79	2906,38
947,22	2934,98
947,65	2972,90
948,08	2858,82
948,51	2841,19
948,94	2871,79
949,37	3129,56
949,80	3028,78
950,23	2912,37
950,66	2885,76
951,09	2964,25
951,52	2846,18
951,95	2972,57
952,38	2894,41
952,81	3071,35
953,24	2857,49
953,67	2901,72
954,10	2894,74
954,53	2885,76
954,96	2909,71
955,39	2966,91
955,82	2864,81
956,25	2971,90
956,68	3189,09
957,11	2843,85
957,53	2956,60
957,96	2950,28
958,39	2890,42
958,82	2888,09
959,25	2887,42
959,68	2817,58
960,11	2924,67
960,54	2956,94
960,97	2951,61
961,40	2990,20
961,83	2994,19
962,26	2874,78
962,68	2936,98
963,11	2912,70
963,54	2932,32
963,97	2918,35
964,40	2872,79
964,83	2991,53
965,26	2887,09
965,69	2895,41
966,11	2960,59
966,54	2882,43
966,97	2889,09
967,40	3009,82
967,83	3275,91
968,26	2974,23
968,69	2925,34
969,11	2960,59
969,54	2881,44
969,97	2884,43
970,40	2977,22
970,83	2907,05
971,26	2937,31
971,68	2847,84
972,11	2888,75
972,54	2917,69
972,97	2961,92
973,40	2897,40
973,82	2983,54
974,25	2942,97
974,68	2886,43
975,11	2881,44
975,54	2881,77
975,96	2954,94
976,39	2871,46
976,82	2967,58
977,25	2923,01
977,67	2906,38
978,10	2914,36
978,53	2908,71
978,96	2995,18
979,38	2969,24
979,81	2878,11
980,24	2955,61
980,67	2999,84
981,09	2914,03
981,52	2936,31
981,95	2898,73
982,38	2914,70
982,80	2892,74
983,23	3010,82
983,66	2993,19
984,08	2871,46
984,51	2817,58
984,94	2913,70
985,37	2953,94
985,79	2917,69
986,22	2874,45
986,65	2958,93
987,07	2901,06
987,50	2936,31
987,93	2917,69
988,35	2937,98
988,78	2932,32
989,21	2896,07
989,63	2955,27
990,06	2915,69
990,49	2955,27
990,91	3050,06
991,34	2914,70
991,77	2868,80
992,19	2924,01
992,62	2899,73
993,05	2908,04
993,47	2986,20
993,90	2987,53
994,32	2952,28
994,75	2930,66
995,18	2859,49
995,60	2881,44
996,03	2826,89
996,45	3013,81
996,88	2978,22
997,31	2877,11
997,73	2939,97
998,16	2864,81
998,58	3043,41
999,01	2944,30
999,44	2936,98
999,86	3010,48
1000,29	2872,79
1000,71	2952,28
1001,14	2982,88
1001,56	2906,71
1001,99	2932,66
1002,41	2913,03
1002,84	2977,56
1003,27	2862,81
1003,69	2960,59
1004,12	2944,63
1004,54	3012,15
1004,97	2914,36
1005,39	2865,80
1005,82	2954,27
1006,24	2915,36
1006,67	2869,13
1007,09	2836,87
1007,52	2913,03
1007,94	2879,11
1008,37	3221,69
1008,79	2974,56
1009,22	2976,89
1009,64	2948,29
1010,07	2965,92
1010,49	3011,81
1010,92	2922,68
1011,34	2948,62
1011,77	2923,01
1012,19	2955,27
1012,62	2957,27
1013,04	2855,16
1013,46	3029,44
1013,89	2834,87
1014,31	2971,90
1014,74	2863,81
1015,16	2921,68
1015,59	2855,16
1016,01	2941,97
1016,44	2894,41
1016,86	3725,96
1017,28	2891,75
1017,71	2839,86
1018,13	3157,16
1018,56	3021,79
1018,98	2976,56
1019,40	2891,08
1019,83	2910,37
1020,25	2936,31
1020,68	2962,92
1021,10	2962,92
1021,52	2923,01
1021,95	3218,36
1022,37	2992,86
1022,79	2966,58
1023,22	2970,57
1023,64	2937,98
1024,07	2939,31
1024,49	2971,57
1024,91	2878,78
1025,34	2878,11
1025,76	3109,27
1026,18	2987,53
1026,61	2939,31
1027,03	2928,33
1027,45	2966,91
1027,88	2884,43
1028,30	3130,22
1028,72	2928,66
1029,15	2946,96
1029,57	2957,60
1029,99	3038,42
1030,41	2863,14
1030,84	2955,61
1031,26	2998,18
1031,68	2897,73
1032,11	3004,83
1032,53	2882,77
1032,95	2873,79
1033,37	2962,92
1033,80	2999,84
1034,22	2916,03
1034,64	3087,65
1035,06	2892,41
1035,49	2894,74
1035,91	2927,67
1036,33	2844,85
1036,75	2971,57
1037,18	2991,19
1037,60	2995,85
1038,02	3008,49
1038,44	3047,74
1038,87	2917,36
1039,29	2929,66
1039,71	2971,24
1040,13	2895,74
1040,55	3073,68
1040,98	3018,47
1041,40	2979,22
1041,82	3007,82
1042,24	2937,64
1042,66	2990,53
1043,09	2875,12
1043,51	2904,39
1043,93	2913,03
1044,35	2854,83
1044,77	2949,29
1045,20	2966,25
1045,62	2890,08
1046,04	2951,95
1046,46	2991,19
1046,88	2885,43
1047,30	3014,81
1047,72	2987,87
1048,15	2991,53
1048,57	2909,37
1048,99	2933,99
1049,41	2966,91
1049,83	2979,55
1050,25	3082,99
1050,67	3024,79
1051,09	2946,63
1051,52	2966,91
1051,94	2804,94
1052,36	2936,65
1052,78	2841,52
1053,20	2931,33
1053,62	2871,13
1054,04	2939,31
1054,46	2970,24
1054,88	3087,98
1055,30	3009,82
1055,72	3003,17
1056,14	2958,27
1056,57	3260,94
1056,99	2879,11
1057,41	2940,64
1057,83	2973,90
1058,25	2917,69
1058,67	2909,04
1059,09	2895,74
1059,51	2995,18
1059,93	2929,33
1060,35	2902,72
1060,77	2994,52
1061,19	3068,02
1061,61	2940,64
1062,03	2913,03
1062,45	2887,09
1062,87	3008,16
1063,29	3005,49
1063,71	2934,98
1064,13	2889,42
1064,55	2833,54
1064,97	3022,46
1065,39	2931,99
1065,81	2912,70
1066,23	2952,94
1066,65	2907,05
1067,07	3073,68
1067,49	2945,29
1067,91	2902,72
1068,33	2867,47
1068,75	2992,52
1069,17	3009,82
1069,59	3003,17
1070,00	2902,06
1070,42	2986,20
1070,84	2895,07
1071,26	2863,81
1071,68	2856,16
1072,10	2972,90
1072,52	2938,31
1072,94	2853,83
1073,36	2893,74
1073,78	2886,09
1074,20	2933,65
1074,62	2889,09
1075,03	2874,12
1075,45	2909,04
1075,87	3006,16
1076,29	2892,41
1076,71	2980,22
1077,13	3057,38
1077,55	2817,91
1077,97	2933,65
1078,38	2920,02
1078,80	2928,00
1079,22	2972,90
1079,64	2923,34
1080,06	2897,07
1080,48	2950,62
1080,89	2931,99
1081,31	2939,64
1081,73	2913,37
1082,15	2951,95
1082,57	2997,18
1082,99	2923,01
1083,40	2897,40
1083,82	3027,45
1084,24	2862,15
1084,66	2910,70
1085,08	2956,60
1085,49	2856,16
1085,91	2983,54
1086,33	5162,85
1086,75	2937,64
1087,17	2873,45
1087,58	2890,42
1088,00	2903,39
1088,42	2994,85
1088,84	2924,67
1089,25	2868,47
1089,67	2908,71
1090,09	2896,07
1090,51	2858,49
1090,92	2978,22
1091,34	2902,06
1091,76	2928,66
1092,18	2913,03
1092,59	2926,00
1093,01	2896,74
1093,43	2930,33
1093,84	2888,42
1094,26	2916,36
1094,68	2936,98
1095,10	2861,81
1095,51	2920,02
1095,93	2872,46
1096,35	2962,92
1096,76	2951,95
1097,18	2985,87
1097,60	2904,72
1098,01	2917,36
1098,43	2862,15
1098,85	2904,05
1099,26	2908,71
1099,68	2921,02
1100,10	2857,82
1100,51	2884,10
1100,93	2910,70
1101,35	2912,03
1101,76	2934,32
1102,18	3403,63
1102,60	3014,14
1103,01	2788,98
1103,43	2933,65
1103,84	2890,08
1104,26	2876,45
1104,68	2895,41
1105,09	2810,26
1105,51	2822,57
1105,92	2976,23
1106,34	2829,88
1106,76	2947,96
1107,17	2927,33
1107,59	2935,32
1108,00	2801,95
1108,42	2873,79
1108,83	2827,56
1109,25	2873,45
1109,67	2828,22
1110,08	2837,53
1110,50	2798,95
1110,91	2862,15
1111,33	2817,91
1111,74	2819,24
1112,16	2889,42
1112,57	2898,07
1112,99	2846,18
1113,41	2858,15
1113,82	2827,89
1114,24	2894,41
1114,65	2857,16
1115,07	2829,22
1115,48	2856,49
1115,90	2150,75
1116,31	2161,72
1116,73	2162,72
1117,14	2163,72
>>>>>End Processed Spectral Data<<<<<
