SpectraSuite Data File
++++++++++++++++++++++++++++++++++++
Date: Tue Oct 11 14:26:43 EEST 2016
User: OO Maya
Dark Spectrum Present: No
Reference Spectrum Present: No
Number of Sampled Component Spectra: 1
Spectrometers: MAYP11278
Integration Time (usec): 7000000 (MAYP11278)
Spectra Averaged: 3 (MAYP11278)
Boxcar Smoothing: 0 (MAYP11278)
Correct for Electrical Dark: No (MAYP11278)
Strobe/Lamp Enabled: No (MAYP11278)
Correct for Detector Non-linearity: Yes (MAYP11278)
Correct for Stray Light: No (MAYP11278)
Number of Pixels in Processed Spectrum: 2068
>>>>>Begin Processed Spectral Data<<<<<
187,82	2253,85
188,30	2191,99
188,78	2160,39
189,26	2164,05
189,73	4703,50
190,21	5050,66
190,69	5128,89
191,17	5361,95
191,64	5570,41
192,12	5364,95
192,60	5300,35
193,07	5102,93
193,55	5405,90
194,03	5313,67
194,51	5428,21
194,98	5312,34
195,46	5633,35
195,94	5253,74
196,42	5357,29
196,89	6130,38
197,37	5337,98
197,85	5188,48
198,32	5358,95
198,80	5230,10
199,28	5451,85
199,76	5633,35
200,23	5320,33
200,71	5309,34
201,19	5591,05
201,66	5575,07
202,14	5546,09
202,62	5160,85
203,09	5538,10
203,57	5210,46
204,05	5611,04
204,53	5756,92
205,00	5285,37
205,48	5253,74
205,96	5798,22
206,43	5264,73
206,91	5491,48
207,39	6076,07
207,86	5460,51
208,34	5587,39
208,82	5401,57
209,29	5678,65
209,77	5567,74
210,25	5363,28
210,72	5421,22
211,20	5536,77
211,68	5432,21
212,15	5300,02
212,63	5887,50
213,11	5598,38
213,58	5341,30
214,06	5899,16
214,53	5489,48
215,01	5833,86
215,49	5512,13
215,96	5668,65
216,44	5613,70
216,92	5650,00
217,39	5290,36
217,87	5449,52
218,35	5793,56
218,82	5183,82
219,30	5294,03
219,77	5318,66
220,25	5468,50
220,73	6078,07
221,20	5330,65
221,68	5693,63
222,15	5294,36
222,63	5672,65
223,11	5352,29
223,58	5683,64
224,06	5401,91
224,53	5335,98
225,01	5219,45
225,49	5359,28
225,96	5246,41
226,44	5436,54
226,91	5664,32
227,39	5387,25
227,87	5740,26
228,34	5620,36
228,82	5592,72
229,29	5402,24
229,77	5428,54
230,24	5365,28
230,72	5564,08
231,20	5718,95
231,67	5504,13
232,15	5482,49
232,62	5214,45
233,10	5466,51
233,57	5545,76
234,05	6468,33
234,53	5567,74
235,00	5332,65
235,48	5295,02
235,95	5221,78
236,43	5716,95
236,90	6031,09
237,38	5364,28
237,85	5540,77
238,33	5526,45
238,80	5557,75
239,28	5431,87
239,75	5261,06
240,23	5635,35
240,71	5864,84
241,18	5561,75
241,66	5467,17
242,13	5731,27
242,61	5734,60
243,08	5226,44
243,56	5316,67
244,03	5673,65
244,51	5881,83
244,98	5484,49
245,46	5837,86
245,93	14219,40
246,41	5218,78
246,88	5548,43
247,36	5525,78
247,83	5577,07
248,31	5600,05
248,78	5172,84
249,26	5522,45
249,73	5744,93
250,21	5630,69
250,68	5919,14
251,16	5562,41
251,63	6058,07
252,10	5865,18
252,58	5421,22
253,05	5866,18
253,53	5545,76
254,00	5483,49
254,48	5599,05
254,95	5623,36
255,43	5754,92
255,90	5392,58
256,38	5640,01
256,85	5717,95
257,33	5794,89
257,80	6379,66
258,27	5566,74
258,75	5423,55
259,22	5594,05
259,70	5728,94
260,17	6004,43
260,65	5580,06
261,12	5438,53
261,59	5858,18
262,07	5366,28
262,54	5653,33
263,02	5565,41
263,49	5269,39
263,97	5711,95
264,44	5782,57
264,91	5458,51
265,39	5578,73
265,86	5685,97
266,34	5695,96
266,81	5504,80
267,28	5595,38
267,76	5666,32
268,23	5716,28
268,71	5231,10
269,18	5428,21
269,65	5455,18
270,13	5759,58
270,60	5906,49
271,08	5567,41
271,55	5616,36
272,02	5299,02
272,50	5349,63
272,97	5181,83
273,44	5624,36
273,92	6589,01
274,39	5773,91
274,87	5799,89
275,34	5519,79
275,81	5545,43
276,29	5726,94
276,76	5796,56
277,23	5318,66
277,71	5490,81
278,18	5353,96
278,65	6912,81
279,13	5482,16
279,60	5460,18
280,07	6716,05
280,55	5865,18
281,02	6524,33
281,50	5467,17
281,97	5876,17
282,44	5578,06
282,91	5585,72
283,39	5761,58
283,86	5412,23
284,33	5373,60
284,81	5800,89
285,28	5591,72
285,75	5679,64
286,23	5706,29
286,70	5329,98
287,17	5751,26
287,65	6066,40
288,12	5526,78
288,59	5819,87
289,07	5198,81
289,54	5980,78
290,01	5454,85
290,48	5684,97
290,96	5522,78
291,43	5771,24
291,90	6202,69
292,38	5450,52
292,85	5934,47
293,32	5509,13
293,79	5747,26
294,27	5770,24
294,74	5504,80
295,21	5651,67
295,69	5753,92
296,16	6141,71
296,63	6081,07
297,10	5867,18
297,58	5767,91
298,05	5766,24
298,52	5547,09
298,99	6101,72
299,47	5650,00
299,94	5763,25
300,41	5558,08
300,88	5924,81
301,36	5942,80
301,83	5942,80
302,30	5490,15
302,77	5943,13
303,25	5962,12
303,72	5610,70
304,19	5720,94
304,66	5651,33
305,13	5948,46
305,61	6008,43
306,08	6034,09
306,55	6219,35
307,02	6055,08
307,49	6173,70
307,97	6443,66
308,44	6319,67
308,91	6762,07
309,38	6822,43
309,86	6941,16
310,33	7106,96
310,80	7535,49
311,27	7453,04
311,74	8028,14
312,21	7920,89
312,69	8686,46
313,16	8220,30
313,63	8450,32
314,10	8848,08
314,57	8882,55
315,05	9023,14
315,52	9449,19
315,99	9556,43
316,46	10016,54
316,93	10757,75
317,40	10949,75
317,88	11571,46
318,35	11074,55
318,82	11570,78
319,29	11536,76
319,76	12419,06
320,23	13302,27
320,70	13383,53
321,18	12913,80
321,65	12514,30
322,12	12556,87
322,59	13089,71
323,06	12898,25
323,53	14181,03
324,00	13761,02
324,48	14556,72
324,95	14911,42
325,42	15678,60
325,89	16905,11
326,36	17872,82
326,83	18743,21
327,30	18869,61
327,77	18755,95
328,24	18811,40
328,72	19481,64
329,19	20197,13
329,66	20628,33
330,13	19873,57
330,60	19132,21
331,07	18072,41
331,54	18296,55
332,01	18118,81
332,48	19702,24
332,95	20153,56
333,43	20526,19
333,90	21028,17
334,37	21558,29
334,84	22830,88
335,31	24528,18
335,78	23384,54
336,25	21879,24
336,72	20983,10
337,19	20785,58
337,66	21438,18
338,13	22300,30
338,60	23191,65
339,07	23223,73
339,54	22881,06
340,01	23659,93
340,49	23542,63
340,96	23247,45
341,43	23519,24
341,90	23458,52
342,37	24023,91
342,84	24111,64
343,31	23618,38
343,78	22106,92
344,25	21134,27
344,72	21814,61
345,19	23325,23
345,66	23629,55
346,13	22970,27
346,60	23353,14
347,07	24118,98
347,54	23065,08
348,01	23581,72
348,48	23768,53
348,95	23261,05
349,42	23750,37
349,89	24929,03
350,36	25934,46
350,83	25547,01
351,30	25157,82
351,77	25532,28
352,24	24915,02
352,71	24520,83
353,18	25973,79
353,65	26982,05
354,12	27344,03
354,59	27259,14
355,06	26819,48
355,53	26205,96
356,00	24827,12
356,47	24314,78
356,94	22374,41
357,41	23427,11
357,88	22800,23
358,35	21435,05
358,82	22526,51
359,28	25128,03
359,75	26590,84
360,22	26552,87
360,69	25461,78
361,16	24695,82
361,63	25369,20
362,10	25953,07
362,57	27232,73
363,04	27555,08
363,51	28013,11
363,98	28590,99
364,45	28532,36
364,92	28897,35
365,39	30622,31
365,86	31905,18
366,32	32304,49
366,79	31658,35
367,26	37783,53
367,73	31234,00
368,20	30720,95
368,67	31446,48
369,14	32019,03
369,61	33379,54
370,08	33032,45
370,55	31495,18
371,02	34182,42
371,48	32524,93
371,95	30805,42
372,42	29234,33
372,89	29890,61
373,36	28724,18
373,83	28093,91
374,30	29585,72
374,77	29746,81
375,23	31153,01
375,70	34494,58
376,17	34286,10
376,64	34949,43
377,11	36417,50
377,58	38606,93
378,05	39619,75
378,51	38975,11
378,98	37018,02
379,45	35568,52
379,92	35364,21
380,39	37218,37
380,86	36849,04
381,33	35216,95
381,79	32086,64
382,26	29861,56
382,73	29312,16
383,20	29116,55
383,67	30357,01
384,14	32606,87
384,60	37594,83
385,07	37424,19
385,54	36633,40
386,01	36115,19
386,48	38346,85
386,94	38048,71
387,41	38077,18
387,88	39923,58
388,35	40130,95
388,82	41958,72
389,28	44450,10
389,75	47483,00
390,22	47574,68
390,69	47265,21
391,16	47677,00
391,62	46253,38
392,09	42991,23
392,56	39475,50
393,03	35625,16
393,50	35082,28
393,96	39430,32
394,43	45220,41
394,90	47862,62
395,37	49525,37
395,83	50169,47
396,30	45304,48
396,77	42664,41
397,24	46529,46
397,70	56133,05
398,17	64619,36
398,64	68393,61
399,11	68393,61
399,57	68393,61
400,04	68393,61
400,51	68393,61
400,98	68393,61
401,44	68393,61
401,91	68393,61
402,38	68393,61
402,84	68393,61
403,31	68393,61
403,78	68393,61
404,25	68393,61
404,71	68393,61
405,18	68393,61
405,65	68393,61
406,12	68393,61
406,58	68393,61
407,05	68393,61
407,52	68393,61
407,98	68393,61
408,45	68393,61
408,92	68393,61
409,38	68393,61
409,85	68393,61
410,32	68393,61
410,78	68393,61
411,25	68393,61
411,72	68393,61
412,18	68393,61
412,65	68393,61
413,12	68393,61
413,59	68393,61
414,05	68393,61
414,52	68393,61
414,98	68393,61
415,45	68393,61
415,92	68393,61
416,38	68393,61
416,85	68393,61
417,32	68393,61
417,78	68393,61
418,25	68393,61
418,72	68393,61
419,18	68393,61
419,65	68393,61
420,12	68393,61
420,58	68393,61
421,05	68393,61
421,51	68393,61
421,98	68393,61
422,45	68393,61
422,91	68393,61
423,38	68393,61
423,85	68393,61
424,31	68393,61
424,78	68393,61
425,24	68393,61
425,71	68393,61
426,18	68393,61
426,64	68393,61
427,11	68393,61
427,57	68393,61
428,04	68393,61
428,51	68393,61
428,97	68393,61
429,44	68393,61
429,90	68393,61
430,37	68393,61
430,83	68393,61
431,30	68393,61
431,77	68393,61
432,23	68393,61
432,70	68393,61
433,16	68393,61
433,63	68393,61
434,09	68393,61
434,56	68393,61
435,03	68393,61
435,49	68393,61
435,96	68393,61
436,42	68393,61
436,89	68393,61
437,35	68393,61
437,82	68393,61
438,28	68393,61
438,75	68393,61
439,21	68393,61
439,68	68393,61
440,14	68393,61
440,61	68393,61
441,07	68393,61
441,54	68393,61
442,00	68393,61
442,47	68393,61
442,94	68393,61
443,40	68393,61
443,87	68393,61
444,33	68393,61
444,80	68393,61
445,26	68393,61
445,73	68393,61
446,19	68393,61
446,65	68393,61
447,12	68393,61
447,58	68393,61
448,05	68393,61
448,51	68393,61
448,98	68393,61
449,44	68393,61
449,91	68393,61
450,37	68393,61
450,84	68393,61
451,30	68393,61
451,77	68393,61
452,23	68393,61
452,70	68393,61
453,16	68393,61
453,62	68393,61
454,09	68393,61
454,55	68393,61
455,02	68393,61
455,48	68393,61
455,95	68393,61
456,41	68393,61
456,88	68393,61
457,34	68393,61
457,80	68393,61
458,27	68393,61
458,73	68393,61
459,20	68393,61
459,66	68393,61
460,13	68393,61
460,59	68393,61
461,05	68393,61
461,52	68393,61
461,98	68393,61
462,45	68393,61
462,91	68393,61
463,37	68393,61
463,84	68393,61
464,30	68393,61
464,76	68393,61
465,23	68393,61
465,69	68393,61
466,16	68393,61
466,62	68393,61
467,08	68393,61
467,55	68393,61
468,01	68393,61
468,48	68393,61
468,94	68393,61
469,40	68393,61
469,87	68393,61
470,33	68393,61
470,79	68393,61
471,26	68393,61
471,72	68393,61
472,18	68393,61
472,65	68393,61
473,11	68393,61
473,57	68393,61
474,04	68393,61
474,50	68393,61
474,96	68393,61
475,43	68393,61
475,89	68393,61
476,35	68393,61
476,82	68393,61
477,28	68393,61
477,74	68393,61
478,21	68393,61
478,67	68393,61
479,13	68393,61
479,59	68393,61
480,06	68393,61
480,52	68393,61
480,98	68393,61
481,45	68393,61
481,91	68393,61
482,37	68393,61
482,84	68393,61
483,30	68393,61
483,76	68393,61
484,22	68393,61
484,69	68393,61
485,15	68393,61
485,61	68393,61
486,07	68393,61
486,54	68393,61
487,00	68393,61
487,46	68393,61
487,92	68393,61
488,39	68393,61
488,85	68393,61
489,31	68393,61
489,77	68393,61
490,24	68393,61
490,70	68393,61
491,16	68393,61
491,62	68393,61
492,09	68393,61
492,55	68393,61
493,01	68393,61
493,47	68393,61
493,94	68393,61
494,40	68393,61
494,86	68393,61
495,32	68393,61
495,78	68393,61
496,25	68393,61
496,71	68393,61
497,17	68393,61
497,63	68393,61
498,09	68393,61
498,56	68393,61
499,02	68393,61
499,48	68393,61
499,94	68393,61
500,40	68393,61
500,87	68393,61
501,33	68393,61
501,79	68393,61
502,25	68393,61
502,71	68393,61
503,17	68393,61
503,64	68393,61
504,10	68393,61
504,56	68393,61
505,02	68393,61
505,48	68393,61
505,94	68393,61
506,40	68393,61
506,87	68393,61
507,33	68393,61
507,79	68393,61
508,25	68393,61
508,71	68393,61
509,17	68393,61
509,63	68393,61
510,10	68393,61
510,56	68393,61
511,02	68393,61
511,48	68393,61
511,94	68393,61
512,40	68393,61
512,86	68393,61
513,32	68393,61
513,78	68393,61
514,25	68393,61
514,71	68393,61
515,17	68393,61
515,63	68393,61
516,09	68393,61
516,55	68393,61
517,01	68393,61
517,47	68393,61
517,93	68393,61
518,39	68393,61
518,85	68393,61
519,32	68393,61
519,78	68393,61
520,24	68393,61
520,70	68393,61
521,16	68393,61
521,62	68393,61
522,08	68393,61
522,54	68393,61
523,00	68393,61
523,46	68393,61
523,92	68393,61
524,38	68393,61
524,84	68393,61
525,30	68393,61
525,76	68393,61
526,22	68393,61
526,68	68393,61
527,14	68393,61
527,60	68393,61
528,06	68393,61
528,52	68393,61
528,98	68393,61
529,44	68393,61
529,90	68393,61
530,36	68393,61
530,82	68393,61
531,28	68393,61
531,74	68393,61
532,20	68393,61
532,66	68393,61
533,12	68393,61
533,58	68393,61
534,04	68393,61
534,50	68393,61
534,96	68393,61
535,42	68393,61
535,88	68393,61
536,34	68393,61
536,80	68393,61
537,26	68393,61
537,72	68393,61
538,18	68393,61
538,64	68393,61
539,10	68393,61
539,56	68393,61
540,02	68393,61
540,48	68393,61
540,94	68393,61
541,40	68393,61
541,86	68393,61
542,32	68393,61
542,78	68393,61
543,24	68393,61
543,69	68393,61
544,15	68393,61
544,61	68393,61
545,07	68393,61
545,53	68393,61
545,99	68393,61
546,45	68393,61
546,91	68393,61
547,37	68393,61
547,83	68393,61
548,29	68393,61
548,74	68393,61
549,20	68393,61
549,66	68393,61
550,12	68393,61
550,58	68393,61
551,04	68393,61
551,50	68393,61
551,96	68393,61
552,42	68393,61
552,87	68393,61
553,33	68393,61
553,79	68393,61
554,25	68393,61
554,71	68393,61
555,17	68393,61
555,63	68393,61
556,08	68393,61
556,54	68393,61
557,00	68393,61
557,46	68393,61
557,92	68393,61
558,38	68393,61
558,83	68393,61
559,29	68393,61
559,75	68393,61
560,21	68393,61
560,67	68393,61
561,13	68393,61
561,58	68393,61
562,04	68393,61
562,50	68393,61
562,96	68393,61
563,42	68393,61
563,87	68393,61
564,33	68393,61
564,79	68393,61
565,25	68393,61
565,71	68393,61
566,16	68393,61
566,62	68393,61
567,08	68393,61
567,54	68393,61
568,00	68393,61
568,45	68393,61
568,91	68393,61
569,37	68393,61
569,83	68393,61
570,28	68393,61
570,74	68393,61
571,20	68393,61
571,66	68393,61
572,11	68393,61
572,57	68393,61
573,03	68393,61
573,49	68393,61
573,94	68393,61
574,40	68393,61
574,86	68393,61
575,32	68393,61
575,77	68393,61
576,23	68393,61
576,69	68393,61
577,15	68393,61
577,60	68393,61
578,06	68393,61
578,52	68393,61
578,97	68393,61
579,43	68393,61
579,89	68393,61
580,34	68393,61
580,80	68393,61
581,26	68393,61
581,72	68393,61
582,17	68393,61
582,63	68393,61
583,09	68393,61
583,54	68393,61
584,00	68393,61
584,46	68393,61
584,91	68393,61
585,37	68393,61
585,83	68393,61
586,28	68393,61
586,74	68393,61
587,20	68393,61
587,65	68393,61
588,11	68393,61
588,57	68393,61
589,02	68393,61
589,48	68393,61
589,94	68393,61
590,39	68393,61
590,85	68393,61
591,30	68393,61
591,76	68393,61
592,22	68393,61
592,67	68393,61
593,13	68393,61
593,59	68393,61
594,04	68393,61
594,50	68393,61
594,95	68393,61
595,41	68393,61
595,87	68393,61
596,32	68393,61
596,78	68393,61
597,23	68393,61
597,69	68393,61
598,15	68393,61
598,60	68393,61
599,06	68393,61
599,51	68393,61
599,97	68393,61
600,43	68393,61
600,88	68393,61
601,34	68393,61
601,79	68393,61
602,25	68393,61
602,70	68393,61
603,16	68393,61
603,61	68393,61
604,07	68393,61
604,53	68393,61
604,98	68393,61
605,44	68393,61
605,89	68393,61
606,35	68393,61
606,80	68393,61
607,26	68393,61
607,71	68393,61
608,17	68393,61
608,62	68393,61
609,08	68393,61
609,53	68393,61
609,99	68393,61
610,44	68393,61
610,90	68393,61
611,35	68393,61
611,81	68393,61
612,26	68393,61
612,72	68393,61
613,17	68393,61
613,63	68393,61
614,08	68393,61
614,54	68393,61
614,99	68393,61
615,45	68393,61
615,90	68393,61
616,36	68393,61
616,81	68393,61
617,27	68393,61
617,72	68393,61
618,18	68393,61
618,63	68393,61
619,09	68393,61
619,54	68393,61
619,99	68393,61
620,45	68393,61
620,90	68393,61
621,36	68393,61
621,81	68393,61
622,27	68393,61
622,72	68393,61
623,18	68393,61
623,63	68393,61
624,08	68393,61
624,54	68393,61
624,99	68393,61
625,45	68393,61
625,90	68393,61
626,35	68393,61
626,81	68393,61
627,26	68393,61
627,72	68393,61
628,17	68393,61
628,62	68393,61
629,08	68393,61
629,53	68393,61
629,99	68393,61
630,44	68393,61
630,89	68393,61
631,35	68393,61
631,80	68393,61
632,26	68393,61
632,71	68393,61
633,16	68393,61
633,62	68393,61
634,07	68393,61
634,52	68393,61
634,98	68393,61
635,43	68393,61
635,88	68393,61
636,34	68393,61
636,79	68393,61
637,24	68393,61
637,70	68393,61
638,15	68393,61
638,60	68393,61
639,06	68393,61
639,51	68393,61
639,96	68393,61
640,42	68393,61
640,87	68393,61
641,32	68393,61
641,78	68393,61
642,23	68393,61
642,68	68393,61
643,14	68393,61
643,59	68393,61
644,04	68393,61
644,49	68393,61
644,95	68393,61
645,40	68393,61
645,85	68393,61
646,31	68393,61
646,76	68393,61
647,21	68393,61
647,66	68393,61
648,12	68393,61
648,57	68393,61
649,02	68393,61
649,47	68393,61
649,93	68393,61
650,38	68393,61
650,83	68393,61
651,28	68393,61
651,74	68393,61
652,19	68393,61
652,64	68393,61
653,09	68393,61
653,55	68393,61
654,00	68393,61
654,45	68393,61
654,90	68393,61
655,35	68393,61
655,81	68393,61
656,26	68393,61
656,71	68393,61
657,16	68393,61
657,62	68393,61
658,07	68393,61
658,52	68393,61
658,97	68393,61
659,42	68393,61
659,88	68393,61
660,33	68393,61
660,78	68393,61
661,23	68393,61
661,68	68393,61
662,13	68393,61
662,59	68393,61
663,04	68393,61
663,49	68393,61
663,94	68393,61
664,39	68393,61
664,84	68393,61
665,30	68393,61
665,75	68393,61
666,20	68393,61
666,65	68393,61
667,10	68393,61
667,55	68393,61
668,00	68393,61
668,46	68393,61
668,91	68393,61
669,36	68393,61
669,81	68393,61
670,26	68393,61
670,71	68393,61
671,16	68393,61
671,61	68393,61
672,06	68393,61
672,52	68393,61
672,97	68393,61
673,42	68393,61
673,87	68393,61
674,32	68393,61
674,77	68393,61
675,22	68393,61
675,67	68393,61
676,12	68393,61
676,57	68393,61
677,02	68393,61
677,47	68393,61
677,93	68393,61
678,38	68393,61
678,83	68393,61
679,28	68393,61
679,73	68393,61
680,18	68393,61
680,63	68393,61
681,08	68393,61
681,53	68393,61
681,98	68393,61
682,43	68393,61
682,88	68393,61
683,33	68393,61
683,78	68393,61
684,23	68393,61
684,68	68393,61
685,13	68393,61
685,58	68393,61
686,03	68393,61
686,48	68393,61
686,93	68393,61
687,38	68393,61
687,83	68393,61
688,28	68393,61
688,73	68393,61
689,18	68393,61
689,63	68393,61
690,08	68393,61
690,53	68393,61
690,98	68393,61
691,43	68393,61
691,88	68393,61
692,33	68393,61
692,78	68393,61
693,23	68393,61
693,68	68393,61
694,13	68393,61
694,58	68393,61
695,03	68393,61
695,48	68393,61
695,93	68393,61
696,38	68393,61
696,83	68393,61
697,28	68393,61
697,72	68393,61
698,17	68393,61
698,62	68393,61
699,07	68393,61
699,52	68393,61
699,97	68393,61
700,42	68393,61
700,87	68393,61
701,32	68393,61
701,77	68393,61
702,22	68393,61
702,67	68393,61
703,11	68393,61
703,56	68393,61
704,01	68393,61
704,46	68393,61
704,91	68393,61
705,36	68393,61
705,81	68393,61
706,26	68393,61
706,70	68393,61
707,15	68393,61
707,60	68393,61
708,05	68393,61
708,50	68393,61
708,95	68393,61
709,40	68393,61
709,84	68393,61
710,29	68393,61
710,74	68393,61
711,19	68393,61
711,64	68393,61
712,09	68393,61
712,53	68393,61
712,98	68393,61
713,43	68393,61
713,88	68393,61
714,33	68393,61
714,78	68393,61
715,22	68393,61
715,67	68393,61
716,12	68393,61
716,57	68393,61
717,02	68393,61
717,46	68393,61
717,91	68393,61
718,36	68393,61
718,81	68393,61
719,26	68393,61
719,70	68393,61
720,15	68393,61
720,60	68393,61
721,05	68393,61
721,49	68393,61
721,94	68393,61
722,39	68393,61
722,84	68393,61
723,28	68393,61
723,73	68393,61
724,18	68393,61
724,63	68393,61
725,07	68393,61
725,52	68393,61
725,97	68393,61
726,42	68393,61
726,86	68393,61
727,31	68393,61
727,76	68393,61
728,21	68393,61
728,65	68393,61
729,10	68393,61
729,55	68393,61
729,99	68393,61
730,44	68393,61
730,89	68393,61
731,33	68393,61
731,78	68393,61
732,23	68393,61
732,68	68393,61
733,12	68393,61
733,57	68393,61
734,02	68393,61
734,46	68393,61
734,91	68393,61
735,36	68393,61
735,80	68393,61
736,25	68393,61
736,70	68393,61
737,14	68393,61
737,59	68393,61
738,04	68393,61
738,48	68393,61
738,93	68393,61
739,37	68393,61
739,82	68393,61
740,27	68393,61
740,71	68393,61
741,16	68393,61
741,61	68393,61
742,05	68393,61
742,50	68393,61
742,94	68393,61
743,39	68393,61
743,84	68393,61
744,28	68393,61
744,73	68393,61
745,18	68393,61
745,62	68393,61
746,07	68393,61
746,51	68393,61
746,96	68393,61
747,40	68393,61
747,85	68393,61
748,30	68393,61
748,74	68393,61
749,19	68393,61
749,63	68393,61
750,08	68393,61
750,52	68393,61
750,97	68393,61
751,42	68393,61
751,86	68393,61
752,31	68393,61
752,75	68393,61
753,20	68393,61
753,64	68393,61
754,09	68393,61
754,53	68393,61
754,98	68393,61
755,42	68393,61
755,87	68393,61
756,31	68393,61
756,76	68393,61
757,20	68393,61
757,65	68393,61
758,09	68393,61
758,54	68393,61
758,98	68393,61
759,43	68393,61
759,87	60657,29
760,32	35992,82
760,76	29866,17
761,21	40031,78
761,65	68323,22
762,10	68393,61
762,54	61631,74
762,99	54411,17
763,43	56830,37
763,88	63869,48
764,32	68393,61
764,77	68393,61
765,21	68393,61
765,66	68393,61
766,10	68393,61
766,54	68393,61
766,99	68393,61
767,43	68393,61
767,88	68393,61
768,32	68393,61
768,77	68393,61
769,21	68393,61
769,66	68393,61
770,10	68393,61
770,54	68393,61
770,99	68393,61
771,43	68393,61
771,88	68393,61
772,32	68393,61
772,76	68393,61
773,21	68393,61
773,65	68393,61
774,10	68393,61
774,54	68393,61
774,98	68393,61
775,43	68393,61
775,87	68393,61
776,31	68393,61
776,76	68393,61
777,20	68393,61
777,65	68393,61
778,09	68393,61
778,53	68393,61
778,98	68393,61
779,42	68393,61
779,86	68393,61
780,31	68393,61
780,75	68393,61
781,19	68393,61
781,64	68393,61
782,08	68393,61
782,52	68393,61
782,97	68393,61
783,41	68393,61
783,85	68393,61
784,30	68393,61
784,74	68393,61
785,18	68393,61
785,63	68393,61
786,07	68393,61
786,51	68393,61
786,95	68393,61
787,40	68393,61
787,84	68393,61
788,28	68393,61
788,73	68393,61
789,17	68393,61
789,61	68393,61
790,05	68393,61
790,50	68393,61
790,94	68393,61
791,38	68393,61
791,82	68393,61
792,27	68393,61
792,71	68393,61
793,15	68393,61
793,59	68393,61
794,04	68393,61
794,48	68393,61
794,92	68393,61
795,36	68393,61
795,81	68393,61
796,25	68393,61
796,69	68393,61
797,13	68393,61
797,57	68393,61
798,02	68393,61
798,46	68393,61
798,90	68393,61
799,34	68393,61
799,79	68393,61
800,23	68393,61
800,67	68393,61
801,11	68393,61
801,55	68393,61
801,99	68393,61
802,44	68393,61
802,88	68393,61
803,32	68393,61
803,76	68393,61
804,20	68393,61
804,64	68393,61
805,09	68393,61
805,53	68393,61
805,97	68393,61
806,41	68393,61
806,85	68393,61
807,29	68393,61
807,74	68393,61
808,18	68393,61
808,62	68393,61
809,06	68393,61
809,50	68393,61
809,94	68393,61
810,38	68393,61
810,82	68393,61
811,27	68393,61
811,71	68393,61
812,15	68393,61
812,59	68393,61
813,03	68393,61
813,47	68393,61
813,91	68393,61
814,35	68393,61
814,79	68393,61
815,23	68393,61
815,67	68393,61
816,12	68393,61
816,56	68393,61
817,00	68393,61
817,44	68393,61
817,88	68393,61
818,32	68393,61
818,76	68393,61
819,20	68393,61
819,64	68393,61
820,08	68393,61
820,52	68393,61
820,96	68393,61
821,40	68393,61
821,84	68393,61
822,28	68393,61
822,72	68393,61
823,16	68393,61
823,60	68393,61
824,04	68393,61
824,48	68393,61
824,92	68393,61
825,36	68393,61
825,80	68393,61
826,24	68393,61
826,68	68393,61
827,12	68393,61
827,56	68393,61
828,00	68393,61
828,44	68393,61
828,88	68393,61
829,32	68393,61
829,76	68393,61
830,20	68393,61
830,64	68393,61
831,08	68393,61
831,52	68393,61
831,96	68393,61
832,40	68393,61
832,84	68393,61
833,28	68393,61
833,72	68393,61
834,16	68393,61
834,60	68393,61
835,04	68393,61
835,48	68393,61
835,91	68393,61
836,35	68393,61
836,79	68393,61
837,23	68393,61
837,67	68393,61
838,11	68393,61
838,55	68393,61
838,99	68393,61
839,43	68393,61
839,87	68393,61
840,30	68393,61
840,74	68393,61
841,18	68393,61
841,62	68393,61
842,06	68393,61
842,50	68393,61
842,94	68393,61
843,38	68393,61
843,81	68393,61
844,25	68393,61
844,69	68393,61
845,13	68393,61
845,57	68393,61
846,01	68393,61
846,45	68393,61
846,88	68393,61
847,32	68393,61
847,76	68393,61
848,20	68393,61
848,64	68393,61
849,08	68393,61
849,51	68393,61
849,95	68393,61
850,39	68393,61
850,83	68393,61
851,27	68393,61
851,70	68393,61
852,14	68393,61
852,58	68393,61
853,02	68393,61
853,46	68393,61
853,89	68393,61
854,33	68393,61
854,77	68393,61
855,21	68393,61
855,65	68393,61
856,08	68393,61
856,52	68393,61
856,96	68393,61
857,40	68393,61
857,83	68393,61
858,27	68393,61
858,71	68393,61
859,15	68393,61
859,58	68393,61
860,02	68393,61
860,46	68393,61
860,89	68393,61
861,33	68393,61
861,77	68393,61
862,21	68393,61
862,64	68393,61
863,08	68393,61
863,52	68393,61
863,95	68393,61
864,39	68393,61
864,83	68393,61
865,27	68393,61
865,70	68393,61
866,14	68393,61
866,58	68393,61
867,01	68393,61
867,45	68393,61
867,89	68393,61
868,32	68393,61
868,76	68393,61
869,20	68393,61
869,63	68393,61
870,07	68393,61
870,51	68393,61
870,94	68393,61
871,38	68393,61
871,82	68393,61
872,25	68393,61
872,69	68393,61
873,13	68393,61
873,56	68393,61
874,00	68393,61
874,43	68393,61
874,87	68393,61
875,31	68393,61
875,74	68393,61
876,18	68393,61
876,61	68393,61
877,05	68393,61
877,49	68393,61
877,92	68393,61
878,36	68393,61
878,79	68393,61
879,23	68393,61
879,67	68393,61
880,10	68393,61
880,54	68393,61
880,97	68393,61
881,41	68393,61
881,84	68393,61
882,28	68393,61
882,72	68393,61
883,15	68393,61
883,59	68393,61
884,02	68393,61
884,46	68393,61
884,89	68393,61
885,33	68393,61
885,76	68393,61
886,20	68393,61
886,63	68393,61
887,07	68393,61
887,50	68393,61
887,94	68393,61
888,37	68393,61
888,81	68393,61
889,24	68393,61
889,68	68393,61
890,11	68393,61
890,55	68393,61
890,98	68393,61
891,42	68393,61
891,85	68393,61
892,29	68393,61
892,72	68393,61
893,16	68393,61
893,59	68393,61
894,03	68393,61
894,46	68393,61
894,90	68393,61
895,33	68393,61
895,77	68393,61
896,20	68393,61
896,63	68393,61
897,07	68393,61
897,50	68393,61
897,94	68393,61
898,37	68393,61
898,81	68393,61
899,24	68393,61
899,68	68393,61
900,11	68393,61
900,54	68393,61
900,98	68393,61
901,41	68393,61
901,85	68393,61
902,28	68393,61
902,71	68393,61
903,15	68393,61
903,58	68393,61
904,02	68393,61
904,45	68393,61
904,88	68393,61
905,32	68393,61
905,75	68393,61
906,18	68393,61
906,62	68393,61
907,05	68393,61
907,48	68393,61
907,92	68393,61
908,35	68393,61
908,79	68393,61
909,22	68393,61
909,65	68393,61
910,09	68393,61
910,52	68393,61
910,95	68393,61
911,38	68393,61
911,82	68393,61
912,25	68393,61
912,68	68393,61
913,12	68393,61
913,55	68393,61
913,98	68393,61
914,42	68393,61
914,85	68393,61
915,28	68393,61
915,72	68393,61
916,15	68393,61
916,58	68393,61
917,01	68393,61
917,45	68393,61
917,88	68393,61
918,31	68393,61
918,74	68393,61
919,18	68393,61
919,61	68393,61
920,04	68393,61
920,47	68393,61
920,91	68393,61
921,34	68393,61
921,77	68393,61
922,20	68393,61
922,64	68393,61
923,07	68393,61
923,50	68393,61
923,93	68393,61
924,37	68393,61
924,80	68393,61
925,23	68393,61
925,66	68393,61
926,09	68393,61
926,53	68393,61
926,96	68393,61
927,39	68393,61
927,82	68393,61
928,25	68393,61
928,69	68393,61
929,12	66671,32
929,55	64089,60
929,98	59758,50
930,41	56546,28
930,84	50700,60
931,28	45535,90
931,71	41937,65
932,14	38867,87
932,57	35580,35
933,00	32777,56
933,43	29329,85
933,86	31032,98
934,30	29386,81
934,73	31826,56
935,16	32163,87
935,59	29568,02
936,02	30250,65
936,45	30583,64
936,88	28091,08
937,31	31316,07
937,75	32274,23
938,18	36445,51
938,61	38941,53
939,04	38997,86
939,47	37980,96
939,90	34402,31
940,33	33405,59
940,76	30974,03
941,19	30641,12
941,62	28314,14
942,05	28543,31
942,48	27247,17
942,91	25221,96
943,35	26818,07
943,78	26889,15
944,21	26994,37
944,64	28592,76
945,07	28539,07
945,50	28513,99
945,93	29387,87
946,36	31354,44
946,79	31469,94
947,22	32130,06
947,65	33129,10
948,08	31745,83
948,51	31773,92
948,94	30674,47
949,37	31231,16
949,80	31397,09
950,23	32870,23
950,66	33245,38
951,09	32433,75
951,52	30774,89
951,95	32563,41
952,38	34858,14
952,81	38637,96
953,24	38806,87
953,67	40486,54
954,10	38702,56
954,53	39528,28
954,96	40255,12
955,39	38567,24
955,82	40421,34
956,25	40791,28
956,68	41439,44
957,11	42426,53
957,53	40962,40
957,96	39115,24
958,39	39300,21
958,82	38776,91
959,25	39803,47
959,68	42652,77
960,11	45057,79
960,54	45821,19
960,97	47362,36
961,40	48561,06
961,83	50412,57
962,26	50441,63
962,68	54038,43
963,11	54164,51
963,54	53548,57
963,97	54297,98
964,40	53388,62
964,83	53129,21
965,26	52117,34
965,69	51199,93
966,11	52192,46
966,54	52897,46
966,97	55316,66
967,40	57259,84
967,83	58574,94
968,26	58841,89
968,69	58623,13
969,11	59710,15
969,54	59871,97
969,97	60487,10
970,40	62445,01
970,83	62564,80
971,26	63026,19
971,68	63758,87
972,11	62599,20
972,54	62865,74
972,97	61774,10
973,40	59968,74
973,82	59251,22
974,25	57917,90
974,68	56394,11
975,11	55379,38
975,54	55229,22
975,96	55322,56
976,39	55875,00
976,82	56590,23
977,25	56612,40
977,67	56137,85
978,10	57510,92
978,53	58290,75
978,96	59744,00
979,38	61970,02
979,81	62706,65
980,24	65218,88
980,67	66642,11
981,09	66137,32
981,52	66668,12
981,95	66460,00
982,38	66814,45
982,80	66236,06
983,23	66648,91
983,66	65902,49
984,08	64410,10
984,51	63202,48
984,94	62741,48
985,37	61992,23
985,79	60916,58
986,22	59694,53
986,65	59856,72
987,07	59497,88
987,50	60160,52
987,93	60563,60
988,35	61016,06
988,78	61874,85
989,21	62652,54
989,63	63978,70
990,06	65070,44
990,49	65738,23
990,91	66683,74
991,34	65941,96
991,77	65353,58
992,19	64763,33
992,62	63550,65
993,05	62675,62
993,47	61695,21
993,90	60699,11
994,32	59395,70
994,75	58316,31
995,18	57353,01
995,60	57011,44
996,03	56308,80
996,45	56737,26
996,88	56499,74
997,31	56388,94
997,73	56602,05
998,16	56610,18
998,58	57890,89
999,01	57879,78
999,44	58591,62
999,86	59433,97
1000,29	59129,08
1000,71	59138,73
1001,14	58719,89
1001,56	57639,65
1001,99	56599,10
1002,41	55186,79
1002,84	53687,14
1003,27	51885,36
1003,69	51000,47
1004,12	49983,77
1004,54	49570,21
1004,97	48880,55
1005,39	48688,11
1005,82	48932,34
1006,24	48974,59
1006,67	48880,92
1007,09	48910,67
1007,52	49069,36
1007,94	49325,45
1008,37	50920,99
1008,79	49970,54
1009,22	50051,06
1009,64	50391,60
1010,07	50399,69
1010,49	50578,83
1010,92	49931,93
1011,34	49806,56
1011,77	49326,55
1012,19	48664,98
1012,62	47524,80
1013,04	46225,93
1013,46	45707,79
1013,89	44230,04
1014,31	44216,54
1014,74	43420,61
1015,16	43488,38
1015,59	43186,39
1016,01	43926,55
1016,44	44096,88
1016,86	49339,41
1017,28	44925,17
1017,71	44826,91
1018,13	46373,83
1018,56	46090,50
1018,98	46373,47
1019,40	46295,48
1019,83	46513,71
1020,25	46743,00
1020,68	46891,01
1021,10	46970,16
1021,52	46949,64
1021,95	47802,82
1022,37	46740,80
1022,79	45959,49
1023,22	45418,17
1023,64	44635,19
1024,07	44249,38
1024,49	43647,28
1024,91	43082,25
1025,34	42740,46
1025,76	43540,86
1026,18	42758,65
1026,61	42644,04
1027,03	42770,30
1027,45	43051,30
1027,88	43101,18
1028,30	44133,36
1028,72	43907,58
1029,15	43915,61
1029,57	44006,78
1029,99	44216,90
1030,41	43166,36
1030,84	43064,40
1031,26	42768,84
1031,68	41724,43
1032,11	41345,45
1032,53	40206,61
1032,95	39412,24
1033,37	39012,30
1033,80	38374,98
1034,22	37433,19
1034,64	37511,30
1035,06	36252,68
1035,49	35796,58
1035,91	35624,09
1036,33	34897,16
1036,75	35229,13
1037,18	35167,52
1037,60	35111,29
1038,02	35228,06
1038,44	35435,17
1038,87	34951,93
1039,29	34904,67
1039,71	35063,30
1040,13	34792,99
1040,55	35024,26
1040,98	34668,45
1041,40	34102,72
1041,82	33505,88
1042,24	32800,72
1042,66	32511,76
1043,09	31499,44
1043,51	31093,70
1043,93	30533,62
1044,35	29793,56
1044,77	29548,90
1045,20	29200,02
1045,62	28590,99
1046,04	28388,98
1046,46	28309,90
1046,88	27665,75
1047,30	28020,52
1047,72	27736,26
1048,15	27698,89
1048,57	27241,18
1048,99	27102,80
1049,41	27119,34
1049,83	27132,02
1050,25	27252,10
1050,67	26843,05
1051,09	26418,92
1051,52	26358,46
1051,94	25617,88
1052,36	25960,79
1052,78	25156,07
1053,20	25133,64
1053,62	24719,98
1054,04	24620,91
1054,46	24332,62
1054,88	24315,83
1055,30	23682,27
1055,72	23352,10
1056,14	22758,77
1056,57	23579,63
1056,99	21804,53
1057,41	21670,45
1057,83	21396,18
1058,25	20934,23
1058,67	20791,12
1059,09	20361,80
1059,51	20595,44
1059,93	20281,53
1060,35	19962,38
1060,77	20106,19
1061,19	20199,90
1061,61	19793,77
1062,03	19602,45
1062,45	19411,24
1062,87	19691,19
1063,29	19658,04
1063,71	19200,83
1064,13	18902,00
1064,55	18610,32
1064,97	19124,28
1065,39	18564,54
1065,81	18388,03
1066,23	18211,62
1066,65	17831,26
1067,07	18175,18
1067,49	17492,86
1067,91	17055,80
1068,33	16756,54
1068,75	17100,67
1069,17	17104,79
1069,59	16802,40
1070,00	16402,86
1070,42	16452,43
1070,84	16076,89
1071,26	15831,79
1071,68	15632,90
1072,10	16086,11
1072,52	15683,04
1072,94	15491,75
1073,36	15463,80
1073,78	15617,56
1074,20	15743,42
1074,62	15466,52
1075,03	15314,88
1075,45	15296,48
1075,87	15578,00
1076,29	15169,44
1076,71	15297,85
1077,13	15390,86
1077,55	14388,19
1077,97	14599,21
1078,38	14206,50
1078,80	14136,22
1079,22	14079,20
1079,64	13759,66
1080,06	13563,07
1080,48	13667,45
1080,89	13391,66
1081,31	13178,71
1081,73	13147,91
1082,15	13069,74
1082,57	13179,38
1082,99	12885,74
1083,40	12663,64
1083,82	13116,44
1084,24	12393,74
1084,66	12491,67
1085,08	12631,88
1085,49	12128,76
1085,91	12544,03
1086,33	19755,43
1086,75	12497,08
1087,17	12073,77
1087,58	11947,96
1088,00	12007,32
1088,42	12241,14
1088,84	11776,34
1089,25	11353,89
1089,67	11369,72
1090,09	11220,92
1090,51	10935,96
1090,92	11027,45
1091,34	10693,89
1091,76	10685,49
1092,18	10465,74
1092,59	10472,12
1093,01	10226,98
1093,43	10230,67
1093,84	10033,99
1094,26	10079,63
1094,68	10115,20
1095,10	9698,91
1095,51	9899,79
1095,93	9669,74
1096,35	9930,32
1096,76	9799,51
1097,18	9748,20
1097,60	9466,28
1098,01	9317,85
1098,43	9220,04
1098,85	9125,60
1099,26	9020,13
1099,68	8965,23
1100,10	8611,53
1100,51	8567,71
1100,93	8584,43
1101,35	8456,34
1101,76	8518,88
1102,18	10168,57
1102,60	8620,23
1103,01	7835,71
1103,43	8233,00
1103,84	8080,60
1104,26	7916,55
1104,68	7971,00
1105,09	7509,45
1105,51	7607,61
1105,92	8064,56
1106,34	7312,85
1106,76	7692,76
1107,17	7568,21
1107,59	7418,32
1108,00	6898,14
1108,42	7080,94
1108,83	6735,39
1109,25	6928,82
1109,67	6669,37
1110,08	6703,04
1110,50	6495,00
1110,91	6648,69
1111,33	6328,00
1111,74	6165,37
1112,16	6330,33
1112,57	6322,00
1112,99	5974,45
1113,41	6036,08
1113,82	5858,51
1114,24	5831,20
1114,65	5579,06
1115,07	5349,96
1115,48	5255,74
1115,90	2106,18
1116,31	2166,38
1116,73	2161,39
1117,14	2166,38
>>>>>End Processed Spectral Data<<<<<
