SpectraSuite Data File
++++++++++++++++++++++++++++++++++++
Date: Mon Mar 10 17:38:16 EET 2014
User: OO Maya
Dark Spectrum Present: No
Reference Spectrum Present: No
Number of Sampled Component Spectra: 1
Spectrometers: MAYP11278
Integration Time (usec): 300000 (MAYP11278)
Spectra Averaged: 20 (MAYP11278)
Boxcar Smoothing: 0 (MAYP11278)
Correct for Electrical Dark: No (MAYP11278)
Strobe/Lamp Enabled: No (MAYP11278)
Correct for Detector Non-linearity: No (MAYP11278)
Correct for Stray Light: No (MAYP11278)
Number of Pixels in Processed Spectrum: 2068
>>>>>Begin Processed Spectral Data<<<<<
188,05	2308,55
188,53	2222,05
189,01	2194,45
189,49	2195,70
189,96	2692,00
190,44	2725,30
190,92	2735,95
191,40	2736,70
191,88	2764,35
192,36	2735,65
192,83	2715,90
193,31	2700,35
193,79	2732,55
194,27	2723,20
194,75	2743,70
195,23	2726,10
195,70	2760,30
196,18	2723,65
196,66	2733,10
197,14	2823,40
197,62	2739,70
198,09	2708,85
198,57	2727,65
199,05	2713,00
199,53	2743,00
200,01	2760,85
200,48	2723,60
200,96	2730,80
201,44	2763,35
201,92	2764,30
202,39	2754,65
202,87	2709,75
203,35	2752,10
203,83	2716,05
204,31	2756,30
204,78	2783,00
205,26	2717,70
205,74	2726,05
206,22	2785,15
206,69	2736,20
207,17	2753,30
207,65	2828,70
208,13	2751,95
208,60	2765,65
209,08	2734,45
209,56	2774,70
210,04	2759,85
210,51	2741,40
210,99	2740,60
211,47	2766,70
211,94	2738,20
212,42	2730,70
212,90	2801,40
213,38	2764,80
213,85	2734,50
214,33	2812,70
214,81	2751,10
215,29	2797,55
215,76	2754,20
216,24	2768,05
216,72	2766,95
217,19	2762,30
217,67	2725,60
218,15	2747,05
218,62	2789,75
219,10	2700,25
219,58	2723,25
220,05	2729,85
220,53	2741,75
221,01	2885,35
221,49	2734,40
221,96	2779,30
222,44	2729,30
222,92	2773,05
223,39	2741,70
223,87	2776,35
224,35	2748,00
224,82	2736,95
225,30	2719,95
225,78	2751,85
226,25	2727,15
226,73	2753,95
227,21	2785,15
227,68	2742,75
228,16	2761,25
228,63	2769,75
229,11	2769,65
229,59	2750,90
230,06	2749,95
230,54	2732,65
231,02	2770,25
231,49	2802,40
231,97	2752,35
232,45	2756,35
232,92	2721,05
233,40	2757,30
233,87	2755,15
234,35	2866,75
234,83	2766,80
235,30	2737,25
235,78	2736,75
236,25	2715,15
236,73	2784,60
237,21	2822,00
237,68	2737,95
238,16	2756,15
238,63	2760,10
239,11	2757,50
239,59	2754,35
240,06	2716,95
240,54	2774,50
241,01	2797,10
241,49	2762,65
241,96	2744,60
242,44	2783,85
242,92	2797,40
243,39	2725,30
243,87	2742,35
244,34	2786,85
244,82	2807,25
245,29	2750,05
245,77	2797,20
246,24	2795,40
246,72	2741,80
247,20	2759,55
247,67	2751,85
248,15	2769,80
248,62	2772,60
249,10	2716,45
249,57	2757,50
250,05	2781,60
250,52	2773,70
251,00	2800,15
251,47	2758,10
251,95	2823,40
252,42	2801,60
252,90	2749,70
253,37	2794,90
253,85	2762,90
254,32	2750,45
254,80	2763,15
255,27	2766,30
255,75	2783,65
256,22	2746,50
256,70	2772,35
257,17	2773,45
257,65	2795,45
258,12	2857,85
258,60	2770,40
259,07	2747,15
259,55	2771,35
260,02	2781,65
260,50	2814,20
260,97	2753,30
261,45	2753,20
261,92	2800,10
262,40	2735,70
262,87	2770,15
263,35	2771,00
263,82	2721,25
264,30	2789,95
264,77	2794,15
265,25	2753,75
265,72	2767,35
266,19	2773,15
266,67	2783,85
267,14	2757,50
267,62	2755,65
268,09	2771,70
268,57	2769,85
269,04	2716,90
269,51	2744,10
269,99	2749,60
270,46	2780,60
270,94	2801,60
271,41	2754,20
271,89	2768,75
272,36	2732,10
272,83	2725,65
273,31	2710,15
273,78	2768,85
274,26	2881,40
274,73	2789,85
275,20	2791,10
275,68	2749,25
276,15	2762,40
276,63	2783,70
277,10	2787,55
277,57	2732,95
278,05	2756,10
278,52	2734,30
279,00	2903,20
279,47	2747,80
279,94	2751,10
280,42	2892,05
280,89	2793,30
281,36	2867,70
281,84	2744,15
282,31	2805,00
282,78	2755,90
283,26	2758,60
283,73	2778,95
284,21	2748,60
284,68	2728,95
285,15	2785,15
285,63	2761,25
286,10	2778,40
286,57	2780,65
287,05	2728,20
287,52	2778,30
287,99	2815,85
288,47	2759,90
288,94	2780,80
289,41	2707,85
289,89	2810,80
290,36	2745,15
290,83	2780,85
291,30	2754,80
291,78	2787,35
292,25	2842,30
292,72	2744,75
293,20	2799,55
293,67	2753,15
294,14	2786,70
294,62	2781,60
295,09	2744,15
295,56	2771,50
296,03	2770,35
296,51	2826,35
296,98	2821,05
297,45	2786,30
297,93	2781,60
298,40	2787,50
298,87	2756,25
299,34	2817,65
299,82	2761,95
300,29	2782,75
300,76	2751,15
301,23	2808,65
301,71	2795,90
302,18	2793,15
302,65	2745,05
303,12	2794,00
303,60	2800,60
304,07	2744,80
304,54	2758,55
305,01	2742,10
305,49	2774,85
305,96	2786,70
306,43	2779,80
306,90	2782,85
307,38	2760,05
307,85	2763,30
308,32	2778,50
308,79	2757,20
309,27	2794,75
309,74	2800,80
310,21	2782,70
310,68	2775,15
311,15	2785,70
311,63	2753,65
312,10	2798,20
312,57	2766,45
313,04	2845,40
313,51	2754,05
313,99	2772,45
314,46	2780,65
314,93	2756,10
315,40	2745,15
315,87	2806,35
316,34	2785,25
316,82	2781,05
317,29	2800,35
317,76	2780,90
318,23	2870,85
318,70	2776,60
319,17	2767,60
319,65	2739,05
320,12	2787,25
320,59	2836,45
321,06	2802,40
321,53	2772,25
322,00	2725,15
322,48	2750,90
322,95	2833,55
323,42	2768,80
323,89	2856,35
324,36	2735,60
324,83	2782,30
325,30	2777,90
325,78	2763,50
326,25	2765,05
326,72	2768,95
327,19	2799,20
327,66	2794,35
328,13	2795,70
328,60	2790,15
329,07	2769,70
329,54	2763,05
330,02	2773,35
330,49	2756,30
330,96	2813,15
331,43	2800,15
331,90	2842,85
332,37	2757,50
332,84	2849,95
333,31	2809,90
333,78	2807,55
334,25	2824,95
334,72	2800,75
335,20	2808,15
335,67	2916,70
336,14	2764,50
336,61	2786,95
337,08	2783,20
337,55	2806,25
338,02	2783,20
338,49	2789,60
338,96	2855,95
339,43	2827,90
339,90	2770,75
340,37	2787,20
340,84	2777,10
341,31	2822,05
341,78	2835,30
342,25	2790,55
342,72	2822,20
343,19	2843,15
343,67	2832,50
344,14	2813,35
344,61	2828,25
345,08	2812,70
345,55	2846,25
346,02	2868,95
346,49	2832,55
346,96	2850,70
347,43	2932,00
347,90	2869,75
348,37	2937,10
348,84	2916,25
349,31	2898,95
349,78	2953,35
350,25	3005,15
350,72	3012,45
351,19	3026,00
351,66	3109,75
352,13	3221,15
352,60	3248,20
353,07	3314,85
353,54	3435,15
354,01	3581,40
354,48	3760,15
354,94	3981,50
355,41	4239,25
355,88	4650,30
356,35	5017,90
356,82	5662,75
357,29	6227,80
357,76	7102,05
358,23	7922,55
358,70	8815,45
359,17	9837,50
359,64	10919,05
360,11	12003,85
360,58	13215,95
361,05	14403,35
361,52	15615,70
361,99	16934,75
362,46	18417,45
362,93	19990,00
363,39	21837,45
363,86	24060,30
364,33	26575,35
364,80	29521,10
365,27	32923,05
365,74	36654,85
366,21	40725,85
366,68	44916,50
367,15	48993,35
367,62	53404,10
368,09	55476,95
368,55	57388,20
369,02	58170,80
369,49	57583,95
369,96	56165,95
370,43	54083,75
370,90	51877,40
371,37	49646,20
371,84	47631,60
372,31	45828,20
372,77	44301,65
373,24	43083,70
373,71	41988,50
374,18	41012,10
374,65	40186,40
375,12	39655,80
375,59	39010,15
376,05	38400,30
376,52	37469,55
376,99	36512,40
377,46	35388,15
377,93	33893,15
378,40	31999,40
378,86	29940,80
379,33	27833,70
379,80	25635,25
380,27	23578,55
380,74	21607,60
381,21	19734,35
381,67	18195,80
382,14	16791,20
382,61	15529,80
383,08	14581,10
383,55	13726,50
384,02	13017,20
384,48	12341,05
384,95	11992,35
385,42	11388,20
385,89	11012,15
386,36	10682,05
386,82	10411,30
387,29	9959,50
387,76	9617,75
388,23	9360,40
388,69	8996,20
389,16	8660,90
389,63	8195,85
390,10	7826,25
390,57	7417,65
391,03	7014,50
391,50	6654,60
391,97	6317,05
392,44	6021,05
392,90	5733,40
393,37	5478,70
393,84	5348,65
394,31	5100,90
394,77	4963,45
395,24	4763,70
395,71	4674,50
396,18	4734,45
396,64	4434,70
397,11	4394,50
397,58	4319,90
398,05	4173,30
398,51	4127,45
398,98	4049,95
399,45	3976,25
399,92	3979,95
400,38	3823,90
400,85	3804,35
401,32	3715,30
401,78	3694,20
402,25	3620,30
402,72	3556,35
403,18	3479,35
403,65	3505,30
404,12	3409,95
404,59	3402,40
405,05	3382,60
405,52	3328,85
405,99	3229,30
406,45	3257,85
406,92	3214,95
407,39	3250,70
407,85	3162,95
408,32	3154,05
408,79	3140,30
409,25	3076,70
409,72	3134,55
410,19	3054,95
410,65	3108,15
411,12	3028,40
411,59	3091,15
412,05	3018,95
412,52	2963,40
412,99	3020,45
413,45	2991,45
413,92	2994,15
414,39	2991,25
414,85	3030,45
415,32	2951,15
415,78	3001,55
416,25	2949,25
416,72	2946,10
417,18	2999,45
417,65	2929,05
418,12	2914,70
418,58	2919,65
419,05	2913,55
419,51	2936,10
419,98	2886,40
420,45	2921,50
420,91	2859,05
421,38	2896,20
421,84	2874,35
422,31	2898,30
422,78	2865,35
423,24	2873,35
423,71	2885,85
424,17	2899,10
424,64	2868,90
425,11	2895,55
425,57	2869,20
426,04	2917,95
426,50	2852,55
426,97	2897,10
427,43	2884,15
427,90	2891,90
428,37	2823,95
428,83	2888,00
429,30	2863,70
429,76	2849,65
430,23	2858,05
430,69	2954,30
431,16	2811,65
431,62	2834,20
432,09	2900,00
432,55	2890,40
433,02	2840,20
433,48	2815,95
433,95	2844,60
434,42	2826,60
434,88	2862,50
435,35	2806,85
435,81	2860,40
436,28	2839,00
436,74	2792,75
437,21	2862,45
437,67	2844,90
438,14	2843,20
438,60	2811,60
439,07	2822,70
439,53	2966,85
440,00	2843,10
440,46	2854,80
440,93	2867,70
441,39	2797,40
441,86	2823,50
442,32	2920,25
442,79	2797,70
443,25	2829,40
443,72	2838,40
444,18	2785,95
444,64	2888,50
445,11	2844,30
445,57	2827,85
446,04	2827,40
446,50	2828,35
446,97	2814,15
447,43	2824,00
447,90	2804,60
448,36	2798,00
448,83	2844,25
449,29	2836,20
449,75	2812,25
450,22	2796,75
450,68	2788,10
451,15	2807,10
451,61	2824,05
452,08	2841,45
452,54	2795,55
453,00	2855,70
453,47	2815,90
453,93	2814,10
454,40	2818,80
454,86	2832,65
455,32	2792,30
455,79	2821,80
456,25	2840,85
456,72	2799,45
457,18	2862,85
457,64	2803,20
458,11	2818,15
458,57	2780,05
459,04	2822,75
459,50	2811,45
459,96	2820,40
460,43	2799,20
460,89	2784,40
461,36	2864,55
461,82	2848,35
462,28	2789,70
462,75	2781,15
463,21	2848,35
463,67	2802,60
464,14	2824,45
464,60	2824,50
465,06	2785,35
465,53	2803,05
465,99	2847,65
466,45	2818,30
466,92	2832,15
467,38	2839,15
467,84	2809,10
468,31	2827,80
468,77	2829,35
469,23	2821,35
469,70	2789,40
470,16	2834,00
470,62	2822,25
471,09	2806,65
471,55	2803,40
472,01	2791,15
472,48	2805,80
472,94	2815,75
473,40	2865,40
473,87	2824,80
474,33	2800,70
474,79	2819,50
475,25	2787,90
475,72	2839,95
476,18	2824,35
476,64	2843,55
477,11	2821,70
477,57	2831,80
478,03	2879,80
478,49	2835,80
478,96	2867,50
479,42	2808,15
479,88	2888,60
480,35	2850,45
480,81	2845,70
481,27	2813,90
481,73	2829,20
482,20	2839,20
482,66	2805,55
483,12	2830,85
483,58	2801,20
484,05	2831,70
484,51	2896,45
484,97	2851,50
485,43	2839,55
485,89	2793,55
486,36	2835,05
486,82	2795,05
487,28	2863,55
487,74	2804,05
488,21	2817,10
488,67	2839,95
489,13	2858,55
489,59	2859,45
490,05	2888,50
490,52	2813,00
490,98	2859,10
491,44	2821,45
491,90	2843,75
492,36	2809,40
492,83	2900,30
493,29	2873,30
493,75	2869,80
494,21	2841,05
494,67	2858,15
495,14	2842,35
495,60	2846,05
496,06	2882,50
496,52	2862,10
496,98	2875,10
497,44	2950,55
497,91	2916,80
498,37	2864,15
498,83	2888,10
499,29	2877,35
499,75	2970,95
500,21	2899,25
500,67	2882,15
501,14	2891,15
501,60	2884,10
502,06	2923,35
502,52	2897,65
502,98	2899,70
503,44	2899,75
503,90	2926,00
504,37	2887,40
504,83	2923,75
505,29	2920,60
505,75	2890,95
506,21	2914,90
506,67	2952,55
507,13	2913,95
507,59	2941,20
508,05	2929,30
508,51	2905,25
508,98	2908,20
509,44	2887,90
509,90	2920,75
510,36	2933,50
510,82	2912,65
511,28	2973,25
511,74	2981,75
512,20	2917,55
512,66	2900,90
513,12	2919,70
513,58	2962,05
514,04	2892,90
514,51	2976,15
514,97	3016,35
515,43	2907,95
515,89	2961,40
516,35	2993,45
516,81	2986,15
517,27	3051,85
517,73	2977,25
518,19	2960,70
518,65	3102,60
519,11	2970,10
519,57	2945,30
520,03	2930,85
520,49	2953,00
520,95	2978,75
521,41	2987,40
521,87	2998,40
522,33	2973,10
522,79	2935,35
523,25	3047,85
523,71	3010,05
524,17	2965,35
524,63	3039,55
525,09	3006,30
525,55	3014,05
526,01	3035,20
526,47	2999,30
526,93	2998,40
527,39	2983,35
527,85	2991,15
528,31	3024,25
528,77	3023,30
529,23	2984,05
529,69	2973,35
530,15	3013,25
530,61	3018,95
531,07	2960,05
531,53	3037,45
531,99	3000,15
532,45	3002,70
532,91	3008,10
533,37	3023,20
533,83	2999,15
534,29	2976,10
534,75	3010,10
535,21	2989,95
535,67	3018,60
536,12	3002,45
536,58	3031,40
537,04	2981,85
537,50	3029,90
537,96	3011,45
538,42	3017,15
538,88	3075,90
539,34	3049,10
539,80	3214,70
540,26	2976,15
540,72	3073,15
541,18	3030,90
541,63	2980,50
542,09	3048,45
542,55	3033,50
543,01	3014,95
543,47	3124,45
543,93	2991,35
544,39	3105,05
544,85	3059,35
545,31	3022,80
545,76	3026,20
546,22	3075,80
546,68	3034,05
547,14	3043,55
547,60	3053,55
548,06	3037,00
548,52	3028,55
548,98	3023,95
549,43	3021,75
549,89	3111,10
550,35	3019,10
550,81	3002,15
551,27	3046,20
551,73	3039,65
552,19	3109,25
552,64	3041,40
553,10	3011,70
553,56	3053,00
554,02	3029,30
554,48	3005,60
554,93	3045,65
555,39	3044,00
555,85	3102,60
556,31	3043,35
556,77	3082,70
557,23	2997,10
557,68	3048,75
558,14	3109,05
558,60	3028,35
559,06	3024,95
559,52	3006,00
559,97	3018,80
560,43	3009,75
560,89	3038,50
561,35	3037,50
561,81	3037,30
562,26	3023,95
562,72	3012,00
563,18	3040,95
563,64	3070,15
564,09	3018,60
564,55	3046,85
565,01	3033,80
565,47	3026,75
565,92	3043,05
566,38	3068,30
566,84	3019,40
567,30	3015,25
567,75	3036,55
568,21	3067,20
568,67	3017,35
569,13	3030,10
569,58	3062,95
570,04	3037,55
570,50	3028,65
570,96	3059,90
571,41	3050,95
571,87	3031,20
572,33	3050,65
572,78	3044,50
573,24	3006,55
573,70	3016,70
574,16	3030,50
574,61	3066,20
575,07	3055,05
575,53	2989,55
575,98	3030,60
576,44	2973,00
576,90	3063,25
577,36	3013,95
577,81	3020,40
578,27	2985,05
578,73	3071,70
579,18	3036,55
579,64	3000,30
580,10	3035,90
580,55	3030,80
581,01	3020,55
581,47	3014,90
581,92	3026,40
582,38	3009,95
582,84	2983,65
583,29	3017,10
583,75	3017,05
584,21	3010,30
584,66	3024,75
585,12	2992,15
585,57	3096,65
586,03	3000,50
586,49	3003,55
586,94	2999,35
587,40	2993,65
587,86	3036,30
588,31	2974,85
588,77	3011,10
589,22	2995,65
589,68	2977,75
590,14	3015,35
590,59	3021,00
591,05	2992,65
591,51	2956,45
591,96	3040,90
592,42	2980,95
592,87	2995,00
593,33	2990,40
593,78	3019,20
594,24	2994,95
594,70	2988,15
595,15	3030,05
595,61	2971,65
596,06	2962,10
596,52	3039,30
596,98	3019,00
597,43	3022,80
597,89	2982,30
598,34	2948,40
598,80	2983,15
599,25	3016,85
599,71	2956,00
600,16	2995,90
600,62	3017,75
601,08	2988,30
601,53	2997,45
601,99	2939,70
602,44	3080,00
602,90	2962,35
603,35	2963,45
603,81	2925,50
604,26	2921,65
604,72	2979,85
605,17	2950,75
605,63	2982,15
606,08	2965,20
606,54	2919,60
606,99	2958,70
607,45	2949,45
607,90	2955,00
608,36	2978,85
608,81	2954,80
609,27	3033,15
609,72	2986,50
610,18	2951,35
610,63	2931,55
611,09	2961,60
611,54	2913,45
612,00	3010,90
612,45	2961,65
612,91	2947,90
613,36	3054,55
613,82	2912,90
614,27	2909,00
614,73	2909,85
615,18	2907,15
615,64	2933,15
616,09	2933,40
616,54	2910,65
617,00	2929,55
617,45	2930,25
617,91	2962,90
618,36	2920,30
618,82	2912,95
619,27	2921,60
619,72	2951,80
620,18	2909,80
620,63	2950,45
621,09	2964,20
621,54	2921,00
622,00	2958,60
622,45	2972,15
622,90	2955,15
623,36	2900,55
623,81	2900,20
624,27	2953,85
624,72	2887,35
625,17	2906,30
625,63	2933,75
626,08	2884,95
626,54	2912,60
626,99	2918,20
627,44	2888,95
627,90	2927,05
628,35	2932,10
628,81	2862,40
629,26	2905,15
629,71	2908,65
630,17	2883,30
630,62	2917,00
631,07	2904,95
631,53	2926,40
631,98	2920,45
632,43	2933,75
632,89	2879,05
633,34	2878,30
633,79	2870,15
634,25	2873,05
634,70	2861,00
635,15	2886,70
635,61	2876,05
636,06	2854,70
636,51	2886,70
636,97	2886,95
637,42	2857,15
637,87	2909,65
638,33	2919,85
638,78	2870,85
639,23	2880,15
639,69	2853,90
640,14	2835,40
640,59	2886,35
641,05	2901,20
641,50	2834,70
641,95	2867,55
642,40	2866,95
642,86	2833,25
643,31	2854,75
643,76	2892,95
644,22	2861,10
644,67	2841,10
645,12	2851,50
645,57	2837,35
646,03	2864,65
646,48	2871,80
646,93	2877,55
647,38	2896,00
647,84	2862,65
648,29	2870,30
648,74	2829,55
649,19	2896,65
649,65	2870,70
650,10	3013,15
650,55	2826,90
651,00	2834,35
651,46	2838,15
651,91	2868,80
652,36	2823,30
652,81	2849,40
653,27	2838,85
653,72	2819,75
654,17	2852,00
654,62	2856,00
655,07	2836,80
655,53	2815,65
655,98	2871,20
656,43	2821,00
656,88	2843,85
657,33	2872,90
657,79	2871,10
658,24	2813,40
658,69	2844,55
659,14	2813,30
659,59	2996,55
660,05	2824,20
660,50	2880,45
660,95	2826,05
661,40	2811,40
661,85	2829,50
662,30	2808,25
662,76	2789,40
663,21	2850,05
663,66	2822,00
664,11	2814,05
664,56	2823,70
665,01	2798,55
665,47	2837,70
665,92	2797,80
666,37	2834,25
666,82	2836,80
667,27	2917,25
667,72	2871,15
668,17	2797,65
668,62	2846,25
669,08	2797,45
669,53	2909,95
669,98	2771,25
670,43	2796,05
670,88	2857,75
671,33	2819,15
671,78	2877,60
672,23	2907,50
672,69	2817,60
673,14	2817,45
673,59	2856,35
674,04	2934,70
674,49	2820,25
674,94	2830,35
675,39	2770,25
675,84	2787,35
676,29	2820,95
676,74	2806,90
677,19	2808,60
677,64	2803,65
678,10	2901,90
678,55	2793,65
679,00	2808,65
679,45	2814,95
679,90	2786,80
680,35	2801,20
680,80	2806,95
681,25	2746,90
681,70	2751,15
682,15	2802,90
682,60	2800,65
683,05	2819,45
683,50	2814,80
683,95	2814,90
684,40	2843,45
684,85	2821,85
685,30	2816,20
685,75	2818,85
686,20	2790,80
686,65	2776,80
687,10	2801,15
687,55	2786,00
688,00	2803,80
688,45	2801,80
688,90	2896,55
689,35	2816,35
689,80	2747,25
690,25	2785,05
690,70	2789,40
691,15	2754,80
691,60	2791,50
692,05	2750,35
692,50	2798,05
692,95	2783,95
693,40	2810,90
693,85	2813,80
694,30	2791,55
694,75	2799,35
695,20	2953,95
695,65	2799,65
696,10	2792,55
696,55	2858,20
697,00	2788,80
697,45	2769,60
697,90	2802,25
698,35	2770,20
698,80	2817,05
699,24	2810,50
699,69	2778,05
700,14	2777,60
700,59	2816,05
701,04	2818,75
701,49	2925,90
701,94	2746,65
702,39	2831,60
702,84	2762,05
703,29	2762,85
703,74	2788,95
704,19	2777,30
704,63	2766,65
705,08	2818,60
705,53	2814,30
705,98	2818,60
706,43	2747,10
706,88	2805,85
707,33	2779,90
707,78	2777,35
708,22	2793,45
708,67	2808,25
709,12	2786,10
709,57	2768,75
710,02	2779,25
710,47	2773,05
710,92	2755,85
711,37	2800,35
711,81	2780,55
712,26	2783,70
712,71	2751,50
713,16	2856,75
713,61	2768,85
714,06	2784,95
714,50	2824,05
714,95	2813,20
715,40	2768,35
715,85	2776,00
716,30	2761,70
716,75	2759,45
717,19	2744,60
717,64	2735,25
718,09	2786,35
718,54	2832,85
718,99	2741,75
719,43	2736,50
719,88	2769,40
720,33	2773,95
720,78	2750,85
721,23	2779,60
721,67	2747,30
722,12	2794,30
722,57	2765,75
723,02	2732,65
723,47	2729,50
723,91	2778,35
724,36	2716,45
724,81	2784,70
725,26	2729,85
725,70	2764,70
726,15	2764,20
726,60	2768,40
727,05	2833,35
727,49	2739,95
727,94	2815,60
728,39	2790,65
728,84	2750,35
729,28	2807,05
729,73	2748,30
730,18	2798,35
730,63	2730,85
731,07	2765,90
731,52	2775,10
731,97	2770,40
732,41	2777,45
732,86	2742,85
733,31	2780,90
733,76	2772,15
734,20	2740,60
734,65	2793,35
735,10	2787,55
735,54	2771,00
735,99	2870,95
736,44	2740,15
736,89	2772,40
737,33	2801,20
737,78	2786,30
738,23	2760,60
738,67	2757,55
739,12	2766,05
739,57	2722,10
740,01	2806,60
740,46	2769,85
740,91	2734,75
741,35	2778,85
741,80	2783,55
742,25	2757,30
742,69	2766,00
743,14	2728,75
743,59	2736,35
744,03	2755,10
744,48	2802,65
744,92	2790,95
745,37	2779,70
745,82	2786,30
746,26	2809,30
746,71	2702,20
747,16	2735,15
747,60	2718,50
748,05	2784,90
748,49	2761,70
748,94	2743,80
749,39	2773,35
749,83	2867,45
750,28	2766,05
750,73	2751,05
751,17	2719,65
751,62	2743,75
752,06	2743,55
752,51	2746,85
752,95	2822,10
753,40	2738,60
753,85	2752,45
754,29	2712,35
754,74	2748,45
755,18	2726,55
755,63	2749,05
756,07	2755,10
756,52	2800,90
756,97	2749,80
757,41	2801,40
757,86	2757,85
758,30	2747,35
758,75	2752,25
759,19	2752,45
759,64	2720,95
760,08	2747,00
760,53	2764,00
760,98	2750,15
761,42	2776,70
761,87	2803,90
762,31	2743,05
762,76	2719,70
763,20	2743,55
763,65	2776,00
764,09	2746,20
764,54	2718,90
764,98	2736,65
765,43	2765,25
765,87	2721,90
766,32	2723,00
766,76	2734,85
767,21	2754,70
767,65	2753,55
768,10	2770,60
768,54	2775,10
768,99	2755,35
769,43	2825,95
769,88	2723,10
770,32	2757,95
770,77	2727,65
771,21	2724,95
771,65	2772,20
772,10	2759,85
772,54	2755,25
772,99	2707,95
773,43	2741,95
773,88	2744,60
774,32	2699,15
774,77	2752,70
775,21	2724,10
775,65	2760,30
776,10	2757,20
776,54	2722,75
776,99	2745,80
777,43	2742,40
777,88	2765,95
778,32	2771,35
778,76	2738,55
779,21	2759,80
779,65	2858,55
780,10	2804,95
780,54	2753,40
780,99	2786,75
781,43	2768,35
781,87	2720,80
782,32	2758,70
782,76	2723,25
783,20	2744,50
783,65	2767,40
784,09	2778,50
784,54	2744,90
784,98	2743,85
785,42	2736,65
785,87	2724,20
786,31	2771,50
786,75	2788,05
787,20	2788,30
787,64	2719,00
788,09	2736,70
788,53	2753,85
788,97	2726,95
789,42	2741,15
789,86	2730,70
790,30	2755,85
790,75	2718,55
791,19	2729,65
791,63	2786,30
792,08	2738,55
792,52	2749,80
792,96	2730,75
793,41	2906,40
793,85	2791,00
794,29	2748,95
794,74	2759,30
795,18	2751,00
795,62	2723,00
796,06	2755,25
796,51	2744,15
796,95	2749,20
797,39	2736,45
797,84	2711,20
798,28	2744,50
798,72	2788,90
799,16	2757,10
799,61	2721,95
800,05	2815,85
800,49	2759,70
800,94	2728,05
801,38	2759,05
801,82	2754,10
802,26	2719,75
802,71	2785,75
803,15	2812,20
803,59	2775,25
804,03	2760,00
804,48	2746,75
804,92	2728,30
805,36	2816,35
805,80	2827,05
806,25	2815,55
806,69	2778,90
807,13	2827,35
807,57	2739,85
808,01	2752,70
808,46	2731,15
808,90	2765,95
809,34	2749,50
809,78	2729,95
810,23	2718,15
810,67	2761,60
811,11	2790,35
811,55	2881,35
811,99	2743,65
812,44	2728,80
812,88	2769,20
813,32	2813,70
813,76	2779,50
814,20	2754,35
814,64	2781,35
815,09	2769,25
815,53	2751,75
815,97	2735,75
816,41	2721,85
816,85	2731,70
817,29	2770,90
817,74	2747,75
818,18	2788,40
818,62	2733,80
819,06	2771,70
819,50	2790,50
819,94	2731,65
820,39	2766,95
820,83	2734,30
821,27	2750,05
821,71	2720,85
822,15	2800,35
822,59	2720,50
823,03	2750,25
823,47	2756,75
823,92	2712,00
824,36	2747,15
824,80	2747,40
825,24	2758,90
825,68	2761,15
826,12	2725,10
826,56	2738,85
827,00	2688,80
827,44	2744,40
827,88	2773,30
828,33	2780,10
828,77	2723,70
829,21	2780,10
829,65	2761,05
830,09	2730,95
830,53	2808,15
830,97	2738,90
831,41	2836,60
831,85	2787,10
832,29	2773,00
832,73	2716,75
833,17	2745,95
833,61	2738,90
834,05	2799,50
834,49	2766,60
834,93	2738,90
835,37	2723,80
835,82	2787,80
836,26	2742,05
836,70	2755,60
837,14	2742,80
837,58	2792,60
838,02	2725,25
838,46	2729,50
838,90	2760,50
839,34	2747,15
839,78	2802,05
840,22	2835,15
840,66	2753,80
841,10	2795,80
841,54	2697,55
841,98	2727,40
842,42	2719,00
842,86	2735,35
843,30	2775,85
843,74	2748,85
844,18	2768,85
844,62	2750,35
845,06	2723,00
845,50	2769,90
845,94	2736,70
846,37	2783,25
846,81	2728,80
847,25	2725,95
847,69	2747,70
848,13	2724,95
848,57	2741,15
849,01	2735,70
849,45	2766,95
849,89	2795,65
850,33	2769,20
850,77	2733,70
851,21	2779,85
851,65	2720,65
852,09	2758,65
852,53	2784,20
852,97	2733,15
853,40	2734,00
853,84	2763,60
854,28	2712,50
854,72	2780,90
855,16	2711,70
855,60	2733,45
856,04	2793,00
856,48	2803,30
856,92	2749,10
857,36	2761,70
857,79	2750,05
858,23	2719,95
858,67	2794,35
859,11	2702,45
859,55	2721,40
859,99	2740,75
860,43	2742,60
860,87	2759,30
861,30	2774,15
861,74	2731,75
862,18	2746,55
862,62	2771,40
863,06	2729,00
863,50	2734,15
863,94	2777,05
864,37	2726,00
864,81	2758,00
865,25	2745,05
865,69	2715,45
866,13	2742,85
866,57	2704,40
867,00	2771,40
867,44	2723,65
867,88	2759,15
868,32	2748,90
868,76	2735,00
869,19	2765,95
869,63	2749,35
870,07	2805,95
870,51	2845,20
870,95	2717,00
871,38	2749,45
871,82	2760,50
872,26	2725,20
872,70	2750,75
873,14	2774,40
873,57	2748,10
874,01	2785,40
874,45	2783,05
874,89	2738,40
875,32	2723,35
875,76	2798,50
876,20	2696,50
876,64	2764,55
877,07	2748,90
877,51	2748,20
877,95	2753,25
878,39	2751,75
878,82	2763,95
879,26	2741,20
879,70	2817,20
880,14	2729,50
880,57	2721,75
881,01	2738,10
881,45	2752,35
881,89	2774,90
882,32	2745,85
882,76	2752,90
883,20	2741,80
883,63	2738,85
884,07	2725,40
884,51	2775,35
884,94	2754,70
885,38	2770,00
885,82	2778,80
886,26	2739,95
886,69	2727,65
887,13	2816,40
887,57	2724,20
888,00	2720,40
888,44	2748,80
888,88	2726,75
889,31	2872,90
889,75	2712,70
890,19	2780,20
890,62	2729,05
891,06	2770,35
891,50	2773,05
891,93	2708,65
892,37	2735,10
892,81	2739,15
893,24	2720,05
893,68	2738,90
894,11	2760,15
894,55	2740,35
894,99	2770,25
895,42	2743,00
895,86	2724,65
896,30	2751,30
896,73	2766,15
897,17	2719,40
897,60	2717,35
898,04	2732,90
898,48	2753,50
898,91	2783,15
899,35	2726,80
899,78	2725,30
900,22	2732,35
900,66	2777,60
901,09	2767,05
901,53	2733,85
901,96	2821,45
902,40	2823,35
902,84	2724,30
903,27	2740,10
903,71	2814,75
904,14	2728,55
904,58	2764,60
905,01	2720,35
905,45	2735,60
905,88	2726,40
906,32	2786,25
906,76	2746,30
907,19	2786,70
907,63	2762,75
908,06	2746,25
908,50	2763,50
908,93	2803,75
909,37	2738,50
909,80	2715,45
910,24	2756,80
910,67	2757,05
911,11	2745,75
911,54	2733,20
911,98	2734,20
912,41	2760,95
912,85	2741,95
913,28	2767,40
913,72	2764,50
914,15	2743,25
914,59	2715,65
915,02	2722,85
915,46	2741,55
915,89	2724,85
916,33	2773,00
916,76	2736,75
917,20	2790,30
917,63	2732,50
918,07	2780,00
918,50	2726,65
918,94	2742,65
919,37	2748,75
919,81	2768,00
920,24	2778,70
920,67	2749,25
921,11	2812,00
921,54	2761,10
921,98	2733,25
922,41	2716,55
922,85	2712,90
923,28	2754,60
923,72	2801,55
924,15	2762,50
924,58	2708,40
925,02	2770,00
925,45	2719,05
925,89	2781,40
926,32	2832,65
926,75	2739,55
927,19	2770,80
927,62	2710,60
928,06	2830,70
928,49	2747,15
928,92	2713,20
929,36	2789,40
929,79	2741,25
930,23	2760,90
930,66	2774,80
931,09	2730,10
931,53	2761,80
931,96	2702,75
932,39	2805,95
932,83	2787,50
933,26	2854,70
933,70	2739,85
934,13	2789,50
934,56	2778,75
935,00	2768,35
935,43	2755,90
935,86	2710,60
936,30	2738,45
936,73	2727,10
937,16	2761,65
937,60	2719,05
938,03	2767,10
938,46	2728,70
938,90	2738,20
939,33	2769,60
939,76	2715,20
940,19	2746,40
940,63	2789,00
941,06	2826,60
941,49	2727,15
941,93	2778,35
942,36	2725,50
942,79	2732,95
943,23	2764,90
943,66	2706,55
944,09	2706,65
944,52	2759,85
944,96	2765,40
945,39	2762,10
945,82	2748,60
946,26	2755,45
946,69	2754,55
947,12	2786,90
947,55	2751,65
947,99	2750,50
948,42	2762,00
948,85	2706,80
949,28	2705,95
949,72	2713,25
950,15	2844,75
950,58	2790,90
951,01	2734,90
951,45	2735,05
951,88	2757,95
952,31	2707,25
952,74	2772,85
953,17	2733,80
953,61	2812,55
954,04	2709,45
954,47	2728,50
954,90	2738,90
955,33	2733,30
955,77	2733,25
956,20	2759,75
956,63	2719,90
957,06	2768,75
957,49	2852,60
957,93	2712,20
958,36	2760,05
958,79	2754,35
959,22	2732,00
959,65	2725,60
960,08	2726,60
960,52	2690,00
960,95	2734,50
961,38	2770,65
961,81	2759,40
962,24	2773,95
962,67	2775,15
963,11	2727,25
963,54	2750,50
963,97	2734,05
964,40	2750,80
964,83	2747,20
965,26	2733,10
965,69	2772,65
966,13	2735,20
966,56	2740,85
966,99	2759,50
967,42	2726,60
967,85	2725,95
968,28	2780,40
968,71	2902,30
969,14	2771,25
969,57	2740,50
970,01	2756,70
970,44	2715,20
970,87	2726,05
971,30	2763,30
971,73	2729,25
972,16	2740,60
972,59	2708,60
973,02	2714,00
973,45	2733,35
973,88	2762,90
974,31	2736,15
974,74	2765,95
975,17	2751,30
975,61	2727,70
976,04	2727,80
976,47	2726,15
976,90	2748,80
977,33	2714,80
977,76	2762,75
978,19	2741,55
978,62	2738,40
979,05	2735,70
979,48	2735,50
979,91	2767,00
980,34	2759,90
980,77	2723,50
981,20	2753,40
981,63	2776,75
982,06	2739,25
982,49	2732,75
982,92	2725,85
983,35	2731,50
983,78	2722,25
984,21	2776,85
984,64	2773,60
985,07	2709,85
985,50	2692,85
985,93	2735,40
986,36	2767,75
986,79	2736,70
987,22	2720,85
987,65	2762,25
988,08	2740,35
988,51	2749,10
988,94	2735,60
989,37	2754,15
989,80	2744,90
990,23	2736,05
990,66	2752,55
991,09	2740,95
991,51	2755,35
991,94	2809,60
992,37	2734,10
992,80	2718,80
993,23	2737,55
993,66	2717,40
994,09	2731,80
994,52	2758,85
994,95	2770,65
995,38	2749,40
995,81	2754,60
996,24	2705,60
996,67	2708,40
997,09	2696,00
997,52	2780,40
997,95	2769,80
998,38	2727,30
998,81	2750,50
999,24	2712,75
999,67	2798,20
1000,10	2745,90
1000,53	2750,60
1000,95	2781,85
1001,38	2716,95
1001,81	2739,80
1002,24	2767,30
1002,67	2739,00
1003,10	2752,00
1003,53	2744,40
1003,95	2764,60
1004,38	2717,05
1004,81	2754,80
1005,24	2750,55
1005,67	2797,30
1006,10	2730,45
1006,52	2703,95
1006,95	2758,95
1007,38	2740,45
1007,81	2727,35
1008,24	2706,65
1008,67	2739,40
1009,09	2727,45
1009,52	2874,25
1009,95	2774,85
1010,38	2768,20
1010,81	2759,25
1011,23	2762,25
1011,66	2779,60
1012,09	2744,35
1012,52	2767,10
1012,95	2747,30
1013,37	2756,85
1013,80	2767,35
1014,23	2719,75
1014,66	2791,25
1015,08	2700,25
1015,51	2774,75
1015,94	2715,85
1016,37	2747,20
1016,80	2717,90
1017,22	2757,65
1017,65	2731,30
1018,08	3606,30
1018,51	2721,30
1018,93	2697,10
1019,36	2843,25
1019,79	2778,70
1020,21	2771,60
1020,64	2732,60
1021,07	2737,70
1021,50	2752,45
1021,92	2754,40
1022,35	2762,70
1022,78	2739,00
1023,21	2879,65
1023,63	2782,95
1024,06	2783,75
1024,49	2769,55
1024,91	2754,40
1025,34	2765,80
1025,77	2773,90
1026,19	2726,70
1026,62	2712,25
1027,05	2830,15
1027,47	2768,70
1027,90	2761,55
1028,33	2746,80
1028,75	2748,50
1029,18	2726,95
1029,61	2827,50
1030,03	2749,75
1030,46	2744,50
1030,89	2757,10
1031,31	2794,85
1031,74	2710,30
1032,17	2754,90
1032,59	2768,50
1033,02	2730,50
1033,45	2771,90
1033,87	2716,80
1034,30	2722,50
1034,73	2757,80
1035,15	2772,45
1035,58	2728,40
1036,00	2812,55
1036,43	2720,90
1036,86	2727,20
1037,28	2747,25
1037,71	2706,20
1038,13	2772,85
1038,56	2771,45
1038,99	2766,50
1039,41	2785,80
1039,84	2801,65
1040,26	2736,05
1040,69	2739,50
1041,11	2752,70
1041,54	2738,30
1041,97	2790,10
1042,39	2790,05
1042,82	2765,05
1043,24	2782,70
1043,67	2753,10
1044,09	2781,10
1044,52	2720,80
1044,95	2741,50
1045,37	2731,25
1045,80	2714,85
1046,22	2760,80
1046,65	2768,45
1047,07	2723,05
1047,50	2764,00
1047,92	2782,95
1048,35	2713,35
1048,77	2783,55
1049,20	2766,00
1049,62	2771,15
1050,05	2734,70
1050,47	2735,25
1050,90	2754,45
1051,32	2782,70
1051,75	2789,60
1052,17	2788,35
1052,60	2748,60
1053,02	2768,30
1053,45	2690,15
1053,87	2746,75
1054,30	2697,70
1054,72	2743,35
1055,15	2727,05
1055,57	2763,80
1056,00	2762,65
1056,42	2813,00
1056,85	2784,60
1057,27	2791,05
1057,70	2748,50
1058,12	2896,20
1058,54	2718,10
1058,97	2767,25
1059,39	2773,40
1059,82	2746,45
1060,24	2740,00
1060,67	2731,75
1061,09	2778,05
1061,51	2752,75
1061,94	2733,45
1062,36	2776,25
1062,79	2800,00
1063,21	2754,20
1063,64	2743,20
1064,06	2730,40
1064,48	2792,85
1064,91	2786,00
1065,33	2738,55
1065,76	2724,25
1066,18	2708,90
1066,60	2775,15
1067,03	2756,90
1067,45	2743,65
1067,87	2756,65
1068,30	2735,55
1068,72	2818,55
1069,15	2753,15
1069,57	2733,80
1069,99	2707,70
1070,42	2780,10
1070,84	2790,50
1071,26	2779,75
1071,69	2742,65
1072,11	2771,20
1072,53	2732,10
1072,96	2711,70
1073,38	2714,30
1073,80	2777,55
1074,23	2735,65
1074,65	2710,05
1075,07	2737,40
1075,50	2732,70
1075,92	2751,80
1076,34	2729,70
1076,77	2719,75
1077,19	2746,65
1077,61	2780,80
1078,04	2733,10
1078,46	2772,10
1078,88	2802,80
1079,30	2695,20
1079,73	2758,70
1080,15	2734,45
1080,57	2743,90
1081,00	2765,55
1081,42	2747,10
1081,84	2728,05
1082,26	2758,15
1082,69	2742,30
1083,11	2745,05
1083,53	2747,90
1083,95	2746,35
1084,38	2780,00
1084,80	2744,55
1085,22	2736,30
1085,64	2786,70
1086,07	2716,70
1086,49	2736,90
1086,91	2756,05
1087,33	2702,75
1087,76	2768,10
1088,18	4017,35
1088,60	2746,85
1089,02	2723,90
1089,45	2729,45
1089,87	2738,55
1090,29	2786,75
1090,71	2744,90
1091,13	2712,80
1091,56	2748,40
1091,98	2733,95
1092,40	2727,45
1092,82	2738,40
1093,24	2731,20
1093,66	2744,05
1094,09	2732,90
1094,51	2749,00
1094,93	2734,30
1095,35	2746,10
1095,77	2732,15
1096,19	2754,55
1096,62	2759,75
1097,04	2709,20
1097,46	2745,90
1097,88	2732,20
1098,30	2758,15
1098,72	2763,35
1099,15	2772,35
1099,57	2739,45
1099,99	2733,70
1100,41	2716,05
1100,83	2734,40
1101,25	2727,15
1101,67	2746,05
1102,09	2710,05
1102,52	2720,90
1102,94	2736,40
1103,36	2741,65
1103,78	2748,10
1104,20	2727,65
1104,62	2795,05
1105,04	2688,50
1105,46	2742,85
1105,88	2739,10
1106,30	2716,05
1106,73	2743,80
1107,15	2676,65
1107,57	2692,20
1107,99	2771,65
1108,41	2706,25
1108,83	2749,95
1109,25	2743,95
1109,67	2750,65
1110,09	2693,70
1110,51	2720,10
1110,93	2698,85
1111,35	2720,85
1111,77	2688,95
1112,19	2703,75
1112,61	2689,00
1113,03	2718,50
1113,45	2705,05
1113,87	2700,30
1114,29	2728,10
1114,71	2747,10
1115,13	2709,80
1115,55	2722,60
1115,98	2711,80
1116,40	2741,05
1116,82	2729,30
1117,24	2715,25
1117,66	2694,85
1118,08	2181,45
1118,50	2196,15
1118,91	2195,10
1119,33	2195,70
>>>>>End Processed Spectral Data<<<<<
