SpectraSuite Data File
++++++++++++++++++++++++++++++++++++
Date: Tue Oct 11 14:27:46 EEST 2016
User: OO Maya
Dark Spectrum Present: No
Reference Spectrum Present: No
Number of Sampled Component Spectra: 1
Spectrometers: MAYP11278
Integration Time (usec): 7000000 (MAYP11278)
Spectra Averaged: 3 (MAYP11278)
Boxcar Smoothing: 0 (MAYP11278)
Correct for Electrical Dark: No (MAYP11278)
Strobe/Lamp Enabled: No (MAYP11278)
Correct for Detector Non-linearity: Yes (MAYP11278)
Correct for Stray Light: No (MAYP11278)
Number of Pixels in Processed Spectrum: 2068
>>>>>Begin Processed Spectral Data<<<<<
187.82	2257.84
188.30	2191.66
188.78	2157.07
189.26	2160.73
189.73	4667.56
190.21	4882.90
190.69	4788.71
191.17	4829.31
191.64	5101.60
192.12	4828.31
192.60	4760.75
193.07	4585.69
193.55	4835.63
194.03	4811.01
194.51	4915.85
194.98	4782.38
195.46	5117.91
195.94	4782.05
196.42	4882.90
196.89	5589.72
197.37	4810.34
197.85	4703.17
198.32	4789.37
198.80	4687.53
199.28	4986.08
199.76	5121.57
200.23	4800.35
200.71	4834.30
201.19	5099.60
201.66	5127.89
202.14	5089.61
202.62	4683.54
203.09	5078.96
203.57	4710.49
204.05	5148.53
204.53	5260.73
205.00	4803.68
205.48	4812.34
205.96	5306.34
206.43	4807.68
206.91	5018.37
207.39	5658.99
207.86	4987.75
208.34	5134.89
208.82	4921.84
209.29	5185.49
209.77	5103.93
210.25	4930.83
210.72	4932.83
211.20	5064.31
211.68	4929.16
212.15	4839.30
212.63	5434.20
213.11	5141.21
213.58	4863.93
214.06	5461.51
214.53	5053.33
215.01	5408.57
215.49	5082.62
215.96	5215.45
216.44	5185.49
216.92	5135.55
217.39	4841.29
217.87	4956.46
218.35	5325.32
218.82	4711.49
219.30	4810.34
219.77	4853.61
220.25	5020.70
220.73	5587.06
221.20	4904.87
221.68	5242.75
222.15	4846.95
222.63	5215.45
223.11	4908.86
223.58	5225.77
224.06	4939.48
224.53	4915.18
225.01	4782.05
225.49	4930.83
225.96	4812.34
226.44	5025.03
226.91	5230.10
227.39	4987.75
227.87	5280.04
228.34	5193.48
228.82	5143.54
229.29	4963.78
229.77	4973.10
230.24	4933.49
230.72	5209.79
231.20	5263.39
231.67	5067.31
232.15	5103.26
232.62	4788.37
233.10	5088.28
233.57	5121.57
234.05	6041.08
234.53	5106.92
235.00	4868.59
235.48	4840.96
235.95	4721.81
236.43	5247.75
236.90	5569.41
237.38	4939.82
237.85	5092.27
238.33	5073.97
238.80	5101.60
239.28	4973.10
239.75	4783.71
240.23	5158.52
240.71	5348.63
241.18	5266.39
241.66	5012.05
242.13	5253.41
242.61	5338.64
243.08	4732.79
243.56	4859.93
244.03	5214.79
244.51	5377.60
244.98	4982.42
245.46	5362.95
245.93	17969.68
246.41	4677.21
246.88	5095.94
247.36	5021.70
247.83	5083.95
248.31	5109.25
248.78	4696.18
249.26	5012.05
249.73	5281.37
250.21	5121.90
250.68	5382.93
251.16	5068.31
251.63	5567.74
252.10	5370.27
252.58	4925.50
253.05	5361.95
253.53	5053.66
254.00	4974.43
254.48	5072.30
254.95	5123.90
255.43	5270.05
255.90	4894.55
256.38	5174.50
256.85	5208.79
257.33	5287.37
257.80	5910.48
258.27	5087.95
258.75	4948.80
259.22	5115.58
259.70	5235.76
260.17	5513.46
260.65	5067.31
261.12	4929.16
261.59	5367.94
262.07	4854.61
262.54	5148.87
263.02	5043.34
263.49	4771.07
263.97	5276.38
264.44	5345.97
264.91	5011.05
265.39	5070.97
265.86	5146.54
266.34	5223.44
266.81	4954.79
267.28	5036.35
267.76	5174.17
268.23	5138.21
268.71	4661.57
269.18	4832.31
269.65	4921.51
270.13	5224.11
270.60	5399.91
271.08	5015.04
271.55	5080.62
272.02	4748.77
272.50	4827.31
272.97	4608.66
273.44	5066.64
273.92	6067.07
274.39	5240.75
274.87	5294.36
275.34	4940.15
275.81	5011.05
276.29	5163.18
276.76	5276.05
277.23	4817.99
277.71	4997.07
278.18	4819.99
278.65	6361.00
279.13	4968.78
279.60	4945.14
280.07	6201.36
280.55	5346.97
281.02	6006.10
281.50	4897.21
281.97	5380.26
282.44	5009.05
282.91	5007.72
283.39	5230.77
283.86	4863.93
284.33	4811.67
284.81	5266.72
285.28	5057.99
285.75	5173.50
286.23	5153.53
286.70	4752.43
287.17	5207.79
287.65	5499.81
288.12	4944.14
288.59	5251.74
289.07	4583.03
289.54	5467.84
290.01	4895.55
290.48	5167.18
290.96	4973.77
291.43	5212.46
291.90	5656.00
292.38	4910.86
292.85	5296.36
293.32	4963.45
293.79	5202.47
294.27	5192.48
294.74	4958.12
295.21	5075.63
295.69	5136.55
296.16	5558.42
296.63	5506.47
297.10	5255.40
297.58	5159.85
298.05	5167.84
298.52	4952.13
298.99	5553.09
299.47	5038.35
299.94	5176.50
300.41	4976.10
300.88	5319.00
301.36	5379.26
301.83	5309.34
302.30	4889.22
302.77	5277.04
303.25	5248.41
303.72	4887.89
304.19	4991.74
304.66	4857.93
305.13	5136.88
305.61	5188.82
306.08	5132.22
306.55	5262.06
307.02	5017.04
307.49	5008.72
307.97	5141.21
308.44	4988.75
308.91	5324.66
309.38	5303.35
309.86	5236.09
310.33	5119.24
310.80	5199.47
311.27	4939.48
311.74	5344.30
312.21	5071.30
312.69	5651.00
313.16	4936.15
313.63	4992.74
314.10	5147.54
314.57	4944.81
315.05	4927.17
315.52	5338.97
315.99	5311.34
316.46	5183.16
316.93	5255.40
317.40	5153.53
317.88	5856.85
318.35	5121.24
318.82	5061.98
319.29	4798.36
319.76	5210.79
320.23	5635.68
320.70	5323.66
321.18	4999.73
321.65	4706.83
322.12	4844.62
322.59	5599.71
323.06	5063.31
323.53	5742.59
324.00	4840.63
324.48	5189.15
324.95	5067.31
325.42	5001.06
325.89	5001.40
326.36	5003.73
326.83	5216.45
327.30	5232.10
327.77	5225.11
328.24	5093.27
328.72	5110.25
329.19	4961.79
329.66	5057.99
330.13	4934.82
330.60	5368.94
331.07	5228.77
331.54	5609.04
332.01	4955.13
332.48	5688.30
332.95	5292.69
333.43	5279.04
333.90	5536.10
334.37	5192.81
334.84	5303.01
335.31	6195.69
335.78	4859.93
336.25	5135.55
336.72	5025.03
337.19	5215.45
337.66	5038.68
338.13	5077.63
338.60	5513.13
339.07	5388.92
339.54	4910.19
340.01	4964.45
340.49	4870.58
340.96	5271.72
341.43	5456.85
341.90	5064.31
342.37	5246.41
342.84	5347.96
343.31	5231.77
343.78	5058.65
344.25	5113.58
344.72	4992.41
345.19	5103.59
345.66	5266.06
346.13	5050.00
346.60	4908.86
347.07	5571.40
347.54	5027.69
348.01	5422.55
348.48	5209.13
348.95	4829.98
349.42	5168.18
349.89	5378.93
350.36	5188.48
350.83	4972.44
351.30	5225.44
351.77	5604.71
352.24	5205.46
352.71	5098.93
353.18	5184.16
353.65	5293.69
354.12	5213.79
354.59	5350.29
355.06	5250.74
355.53	5591.39
356.00	5015.04
356.47	5562.41
356.94	4919.51
357.41	5972.12
357.88	5342.97
358.35	4831.97
358.82	4957.12
359.28	5032.69
359.75	5020.70
360.22	5356.62
360.69	5556.09
361.16	5054.32
361.63	5113.25
362.10	5173.84
362.57	5042.01
363.04	5179.50
363.51	5802.88
363.98	5307.34
364.45	5010.38
364.92	5284.37
365.39	5034.68
365.86	4890.89
366.32	5202.47
366.79	5153.86
367.26	9575.54
367.73	4735.79
368.20	4913.19
368.67	5374.60
369.14	4916.18
369.61	5383.59
370.08	5173.17
370.55	5086.61
371.02	9206.98
371.48	5179.50
371.95	5044.67
372.42	4795.03
372.89	4990.74
373.36	5117.24
373.83	4843.96
374.30	4970.11
374.77	5201.80
375.23	4771.07
375.70	5574.40
376.17	5065.31
376.64	4873.91
377.11	4901.87
377.58	5265.72
378.05	5217.78
378.51	5131.89
378.98	5152.53
379.45	5138.88
379.92	5323.32
380.39	5852.85
380.86	5173.17
381.33	5567.07
381.79	5507.46
382.26	4841.96
382.73	5236.43
383.20	5083.62
383.67	5373.60
384.14	5120.90
384.60	6692.04
385.07	5201.47
385.54	5037.68
386.01	5108.92
386.48	5625.36
386.94	4893.55
387.41	4876.57
387.88	5394.58
388.35	5251.08
388.82	5533.11
389.28	4999.40
389.75	5315.00
390.22	5237.09
390.69	5320.00
391.16	5294.03
391.62	5225.11
392.09	5264.39
392.56	5157.19
393.03	5069.64
393.50	5841.86
393.96	5156.52
394.43	5452.52
394.90	4945.81
395.37	5450.19
395.83	6644.02
396.30	4904.20
396.77	5306.68
397.24	5383.59
397.70	4959.12
398.17	5209.13
398.64	5094.94
399.11	4995.07
399.57	5522.78
400.04	4966.45
400.51	5209.13
400.98	5139.21
401.44	5355.62
401.91	5354.29
402.38	5254.74
402.84	5048.33
403.31	5687.30
403.78	5162.85
404.25	5651.67
404.71	5792.56
405.18	5630.02
405.65	5029.36
406.12	5454.18
406.58	5450.52
407.05	5827.53
407.52	5265.06
407.98	5329.98
408.45	5475.16
408.92	5027.69
409.38	5563.74
409.85	5035.02
410.32	5575.40
410.78	5135.22
411.25	5613.03
411.72	5170.17
412.18	4858.60
412.65	5436.54
413.12	5176.17
413.59	5399.24
414.05	5428.54
414.52	5717.61
414.98	5230.43
415.45	5731.60
415.92	5376.60
416.38	5321.66
416.85	5808.55
417.32	5384.59
417.78	5273.05
418.25	5377.60
418.72	5334.31
419.18	5537.77
419.65	5097.93
420.12	5568.74
420.58	5036.68
421.05	5286.37
421.51	5184.82
421.98	5460.18
422.45	5148.87
422.91	5232.76
423.38	5413.23
423.85	5548.09
424.31	5248.74
424.78	5535.44
425.24	5305.68
425.71	5615.70
426.18	5192.15
426.64	5605.71
427.11	5515.12
427.57	5563.08
428.04	5044.34
428.51	5568.07
428.97	5370.27
429.44	5266.06
429.90	5370.61
430.37	6333.33
430.83	5003.06
431.30	5238.42
431.77	5764.91
432.23	5616.36
432.70	5263.06
433.16	5202.13
433.63	5350.63
434.09	5263.06
434.56	5509.13
435.03	5081.29
435.49	5551.76
435.96	5376.60
436.42	5009.39
436.89	5551.09
437.35	5385.26
437.82	5384.59
438.28	5136.88
438.75	5260.06
439.21	6695.37
439.68	5451.52
440.14	5587.06
440.61	5647.34
441.07	5166.51
441.54	5298.02
442.00	6077.40
442.47	5146.20
442.94	5432.87
443.40	5468.17
443.87	5073.30
444.33	5851.52
444.80	5481.16
445.26	5337.64
445.73	5401.57
446.19	5463.84
446.65	5325.32
447.12	5449.86
447.58	5277.04
448.05	5197.47
448.51	5546.76
448.98	5542.10
449.44	5395.25
449.91	5199.80
450.37	5212.12
450.84	5253.07
451.30	5451.52
451.77	5631.68
452.23	5204.47
452.70	5665.32
453.16	5389.59
453.62	5396.91
454.09	5383.92
454.55	5572.40
455.02	5294.69
455.48	5423.22
455.95	5666.32
456.41	5291.69
456.88	5771.24
457.34	5387.92
457.80	5403.24
458.27	5133.55
458.73	5434.54
459.20	5397.58
459.66	5672.65
460.13	5312.34
460.59	5183.82
461.05	5798.89
461.52	5680.64
461.98	5252.41
462.45	5154.86
462.91	5754.59
463.37	5352.96
463.84	5428.54
464.30	5507.80
464.76	5214.79
465.23	5308.01
465.69	5711.62
466.16	5485.15
466.62	5581.73
467.08	5572.74
467.55	5383.59
468.01	5498.47
468.48	5553.75
468.94	5454.85
469.40	5240.75
469.87	5546.43
470.33	5509.13
470.79	5350.96
471.26	5389.92
471.72	5213.79
472.18	5363.95
472.65	5407.90
473.11	5824.87
473.57	5432.87
474.04	5314.67
474.50	5452.19
474.96	5188.82
475.43	5540.43
475.89	5456.18
476.35	5601.04
476.82	5386.26
477.28	5499.81
477.74	5873.84
478.21	5499.81
478.67	5781.90
479.13	5269.39
479.59	5989.44
480.06	5611.04
480.52	5557.08
480.98	5301.35
481.45	5473.17
481.91	5545.10
482.37	5174.50
482.84	5382.26
483.30	5129.56
483.76	5466.17
484.22	5924.14
484.69	5488.82
485.15	5402.57
485.61	5059.32
486.07	5327.65
486.54	5074.63
487.00	5513.13
487.46	5148.87
487.92	5113.25
488.39	5289.36
488.85	5561.08
489.31	5410.90
489.77	5750.26
490.24	5180.49
490.70	5493.48
491.16	5165.85
491.62	5275.38
492.09	5055.66
492.55	5708.29
493.01	5539.43
493.47	5464.51
493.94	5374.27
494.40	5383.92
494.86	5275.05
495.32	5279.71
495.78	5509.13
496.25	5330.98
496.71	5442.20
497.17	5951.13
497.63	5771.91
498.09	5295.36
498.56	5488.82
499.02	5308.01
499.48	6167.37
499.94	5437.20
500.40	5269.39
500.87	5425.88
501.33	5336.31
501.79	5620.69
502.25	5463.84
502.71	7094.29
503.17	5372.60
503.64	5564.08
504.10	5299.35
504.56	5510.46
505.02	5553.42
505.48	5257.73
505.94	5447.86
506.40	5719.28
506.87	5415.56
507.33	5605.71
507.79	5577.73
508.25	5336.64
508.71	5268.39
509.17	5117.57
509.63	5318.00
510.10	5496.14
510.56	5300.68
511.02	5833.86
511.48	5803.55
511.94	5293.36
512.40	5104.26
512.86	5288.70
513.32	5649.34
513.78	5016.38
514.25	5690.97
514.71	9242.15
515.17	5014.71
515.63	5546.76
516.09	5751.26
516.55	5602.71
517.01	6152.04
517.47	5538.77
517.93	5462.18
518.39	6554.00
518.85	5409.90
519.32	5343.64
519.78	5186.82
520.24	5240.09
520.70	5592.39
521.16	5645.01
521.62	5685.64
522.08	5482.82
522.54	5172.84
523.00	6036.08
523.46	5704.29
523.92	5426.55
524.38	6086.06
524.84	5644.67
525.30	5697.63
525.76	5867.84
526.22	5591.39
526.68	5471.17
527.14	5365.61
527.60	5423.22
528.06	5716.61
528.52	5624.69
528.98	5404.57
529.44	5304.01
529.90	5665.66
530.36	5701.63
530.82	5217.45
531.28	5823.54
531.74	5482.16
532.20	5469.17
532.66	5491.15
533.12	5621.03
533.58	5412.89
534.04	5214.79
534.50	5471.83
534.96	5346.30
535.42	5572.40
535.88	5360.62
536.34	5594.38
536.80	5248.41
537.26	5661.99
537.72	5500.14
538.18	5501.14
538.64	6043.75
539.10	5630.02
539.56	7172.69
540.02	5154.86
540.48	5971.78
540.94	5489.15
541.40	5244.42
541.86	5670.65
542.32	5608.70
542.78	5401.91
543.24	6290.34
543.69	5252.74
544.15	6152.71
544.61	5729.94
545.07	5443.20
545.53	5442.86
545.99	5741.60
546.45	5505.47
546.91	5644.01
547.37	5678.98
547.83	5567.74
548.29	5459.85
548.74	5418.55
549.20	5273.72
549.66	6197.69
550.12	5413.56
550.58	5215.78
551.04	5625.36
551.50	5574.40
551.96	6051.08
552.42	5634.68
552.87	5345.97
553.33	5661.33
553.79	5455.18
554.25	5317.33
554.71	5604.71
555.17	5587.06
555.63	6049.08
556.08	5627.02
556.54	5898.16
557.00	5123.90
557.46	5609.70
557.92	6202.03
558.38	5383.26
558.83	5452.19
559.29	5328.32
559.75	5349.63
560.21	5308.67
560.67	5533.44
561.13	5504.80
561.58	5542.76
562.04	5358.62
562.50	5332.98
562.96	5540.10
563.42	5819.87
563.87	5308.34
564.33	5608.04
564.79	5421.88
565.25	5405.57
565.71	5568.41
566.16	5814.88
566.62	5487.15
567.08	5363.28
567.54	5556.09
568.00	5714.95
568.45	5344.30
568.91	5485.82
569.37	5657.00
569.83	5528.44
570.28	5506.47
570.74	5721.94
571.20	5714.28
571.66	5510.13
572.11	5635.68
572.57	5655.33
573.03	5397.58
573.49	5399.57
573.94	5538.77
574.40	5930.14
574.86	5766.24
575.32	5270.05
575.77	5557.42
576.23	5053.99
576.69	5803.55
577.15	5456.52
577.60	5446.86
578.06	5224.11
578.52	5935.47
578.97	5451.85
579.43	5378.60
579.89	5597.38
580.34	5609.04
580.80	5512.13
581.26	5525.78
581.72	5606.04
582.17	5494.14
582.63	5250.41
583.09	5501.14
583.54	5647.34
584.00	5475.83
584.46	5704.29
584.91	5329.65
585.37	6370.33
585.83	5458.51
586.28	5465.17
586.74	5531.11
587.20	5447.52
587.65	5796.22
588.11	5241.09
588.57	5625.69
589.02	5437.20
589.48	5331.65
589.94	5660.66
590.39	5708.29
590.85	5412.56
591.30	5206.46
591.76	5935.80
592.22	5427.21
592.67	5620.36
593.13	5529.11
593.59	5810.55
594.04	5504.13
594.50	5474.16
594.95	5880.17
595.41	5407.23
595.87	5323.66
596.32	6012.43
596.78	5726.94
597.23	5856.18
597.69	5590.05
598.15	5219.11
598.60	5559.75
599.06	5938.13
599.51	5393.91
599.97	5713.28
600.43	5831.53
600.88	5688.97
601.34	5729.94
601.79	5179.16
602.25	6413.66
602.70	5433.54
603.16	5549.42
603.61	5310.01
604.07	5203.47
604.53	5685.64
604.98	5443.86
605.44	5728.27
605.89	5563.74
606.35	5220.11
606.80	5549.09
607.26	5493.15
607.71	5580.06
608.17	5729.27
608.62	5555.42
609.08	6282.67
609.53	5766.24
609.99	5536.10
610.44	5403.57
610.90	5589.72
611.35	5276.71
611.81	6098.39
612.26	5728.61
612.72	5578.06
613.17	6577.34
613.63	5241.75
614.08	5225.11
614.54	5291.69
614.99	5250.08
615.45	5464.84
615.90	5523.78
616.36	5308.34
616.81	5489.48
617.27	5485.15
617.72	5771.91
618.18	5356.62
618.63	5530.11
619.09	5501.80
619.54	5771.57
619.99	5527.45
620.45	5769.91
620.90	5883.50
621.36	5471.50
621.81	5799.22
622.27	5951.46
622.72	5842.52
623.18	5350.63
623.63	5355.29
624.08	5856.85
624.54	5200.47
624.99	5474.83
625.45	5629.69
625.90	5337.64
626.35	5541.10
626.81	5615.70
627.26	5309.34
627.72	5736.60
628.17	5739.60
628.62	5181.83
629.08	5482.16
629.53	5559.08
629.99	5356.29
630.44	5644.34
630.89	5526.78
631.35	5764.25
631.80	5634.35
632.26	5812.54
632.71	5393.58
633.16	5443.53
633.62	5345.30
634.07	5453.19
634.52	5275.71
634.98	5520.12
635.43	5395.58
635.88	5233.43
636.34	5532.44
636.79	5511.46
637.24	5347.63
637.70	5761.91
638.15	5789.23
638.60	5466.17
639.06	5536.44
639.51	5309.67
639.96	5147.87
640.42	5613.70
640.87	5832.53
641.32	5223.77
641.78	5434.20
642.23	5461.51
642.68	5161.85
643.14	5413.56
643.59	5673.98
644.04	5412.23
644.49	5267.39
644.95	5415.89
645.40	5272.38
645.85	5526.11
646.31	5569.41
646.76	5661.66
647.21	5704.96
647.66	5561.41
648.12	5578.06
648.57	5276.38
649.02	5889.50
649.47	5689.64
649.93	6793.75
650.38	5276.05
650.83	5363.95
651.28	5384.92
651.74	5571.40
652.19	5307.68
652.64	5496.48
653.09	5322.99
653.55	5375.27
654.00	5541.43
654.45	5614.70
654.90	5420.22
655.35	5273.38
655.81	5663.66
656.26	5247.08
656.71	5455.85
657.16	5643.34
657.62	5675.31
658.07	5274.71
658.52	5511.46
658.97	5311.01
659.42	6955.17
659.88	5418.55
660.33	5839.86
660.78	5463.18
661.23	5338.64
661.68	5483.49
662.13	5313.00
662.59	5094.27
663.04	5635.01
663.49	5430.54
663.94	5374.93
664.39	5493.15
664.84	5315.00
665.30	5556.75
665.75	5232.43
666.20	5528.11
666.65	5546.09
667.10	6385.00
667.55	5897.49
668.00	5317.33
668.46	5584.06
668.91	5323.32
669.36	6238.02
669.81	5105.26
670.26	5358.29
670.71	5874.84
671.16	5535.77
671.61	5978.78
672.06	6334.00
672.52	5464.51
672.97	5557.75
673.42	5896.49
673.87	6538.00
674.32	5586.39
674.77	5617.36
675.22	5181.49
675.67	5332.31
676.12	5552.09
676.57	5445.53
677.02	5432.87
677.47	5432.21
677.93	6351.33
678.38	5342.30
678.83	5445.86
679.28	5620.69
679.73	5393.25
680.18	5540.77
680.63	5473.17
681.08	5041.67
681.53	5089.61
681.98	5416.22
682.43	5506.80
682.88	5672.32
683.33	5664.32
683.78	5558.75
684.23	5877.17
684.68	5629.69
685.13	5558.75
685.58	5606.04
686.03	5440.53
686.48	5229.10
686.93	5377.60
687.38	5146.87
687.83	5371.94
688.28	5348.30
688.73	6316.67
689.18	5588.39
689.63	5010.05
690.08	5379.93
690.53	5348.96
690.98	5132.56
691.43	5436.20
691.88	5104.92
692.33	5461.84
692.78	5406.23
693.23	5720.61
693.68	5561.41
694.13	5493.81
694.58	5459.51
695.03	6980.86
695.48	5525.78
695.93	5501.14
696.38	6076.40
696.83	5472.17
697.28	5335.98
697.72	5618.03
698.17	5273.05
698.62	5695.30
699.07	5690.64
699.52	5276.05
699.97	5386.59
700.42	5657.33
700.87	5702.96
701.32	6844.11
701.77	5209.13
702.22	5949.79
702.67	5339.31
703.11	5371.94
703.56	5545.43
704.01	5417.56
704.46	5383.26
704.91	5824.87
705.36	5799.89
705.81	5776.57
706.26	5261.73
706.70	5631.68
707.15	5498.47
707.60	5448.19
708.05	5599.05
708.50	5749.59
708.95	5575.40
709.40	5368.94
709.84	5513.13
710.29	5472.50
710.74	5399.24
711.19	5636.01
711.64	5528.11
712.09	5507.80
712.53	5270.72
712.98	6135.38
713.43	5493.48
713.88	5559.42
714.33	5906.15
714.78	5747.92
715.22	5437.53
715.67	5522.78
716.12	5388.25
716.57	5354.96
717.02	5175.17
717.46	5147.87
717.91	5573.74
718.36	5941.80
718.81	5113.58
719.26	5083.62
719.70	5416.89
720.15	5298.02
720.60	5198.81
721.05	5509.80
721.49	5293.03
721.94	5557.75
722.39	5474.50
722.84	5125.90
723.28	5018.37
723.73	5383.26
724.18	5036.02
724.63	5560.41
725.07	5078.29
725.52	5366.28
725.97	5368.28
726.42	5438.20
726.86	5964.12
727.31	5170.17
727.76	5781.23
728.21	5526.45
728.65	5354.62
729.10	5771.24
729.55	5271.05
729.99	5666.65
730.44	5120.57
730.89	5432.54
731.33	5564.08
731.78	5575.07
732.23	5522.45
732.68	5294.03
733.12	5684.31
733.57	5590.05
734.02	5304.35
734.46	5666.99
734.91	5692.63
735.36	5539.10
735.80	6468.33
736.25	5268.39
736.70	5506.80
737.14	5721.28
737.59	5686.64
738.04	5454.52
738.48	5414.89
738.93	5542.76
739.37	5216.12
739.82	5840.86
740.27	5647.00
740.71	5325.32
741.16	5578.73
741.61	5700.96
742.05	5424.55
742.50	5482.49
742.94	5289.03
743.39	5292.69
743.84	5494.81
744.28	5786.90
744.73	5762.58
745.18	5613.03
745.62	5755.59
746.07	5920.81
746.51	5022.37
746.96	5254.07
747.40	5216.12
747.85	5617.36
748.30	5463.84
748.74	5388.25
749.19	5600.38
749.63	6480.33
750.08	5518.12
750.52	5436.87
750.97	5161.19
751.42	5385.92
751.86	5372.27
752.31	5458.51
752.75	6086.73
753.20	5345.63
753.64	5421.22
754.09	5175.17
754.53	5418.22
754.98	5230.43
755.42	5426.55
755.87	5466.17
756.31	5786.56
756.76	5369.61
757.20	5879.17
757.65	5516.12
758.09	5415.89
758.54	5368.61
758.98	5357.62
759.43	5038.35
759.87	5114.91
760.32	5183.82
760.76	5075.96
761.21	5266.72
761.65	5570.74
762.10	5090.61
762.54	4856.27
762.99	5057.65
763.43	5383.92
763.88	5153.53
764.32	4926.50
764.77	5068.64
765.21	5357.95
765.66	5054.66
766.10	5045.67
766.54	5181.49
766.99	5381.93
767.43	5429.88
767.88	5508.13
768.32	5639.01
768.77	5388.59
769.21	6035.75
769.66	5214.12
770.10	5335.64
770.54	5313.67
770.99	5192.81
771.43	5629.35
771.88	5448.86
772.32	5630.69
772.76	5106.92
773.21	5345.97
773.65	5364.61
774.10	5085.28
774.54	5483.16
774.98	5254.07
775.43	5518.45
775.87	5475.16
776.31	5232.10
776.76	5387.59
777.20	5340.31
777.65	5605.04
778.09	5647.00
778.53	5360.62
778.98	5472.17
779.42	6388.00
779.86	5825.54
780.31	5475.83
780.75	5747.92
781.19	5609.04
781.64	5272.05
782.08	5485.49
782.52	5222.78
782.97	5400.57
783.41	5632.35
783.85	5658.33
784.30	5413.23
784.74	5324.99
785.18	5370.94
785.63	5281.37
786.07	5654.00
786.51	5761.91
786.95	5778.90
787.40	5197.14
787.84	5299.69
788.28	5506.47
788.73	6183.03
789.17	5329.98
789.61	5291.36
790.05	5419.55
790.50	5181.49
790.94	5225.11
791.38	5711.62
791.82	5322.99
792.27	5428.21
792.71	5238.76
793.15	6864.45
793.59	5690.97
794.04	5433.54
794.48	5476.16
794.92	5406.23
795.36	5194.14
795.81	5511.79
796.25	5381.26
796.69	5442.20
797.13	5282.70
797.57	5196.14
798.02	5411.89
798.46	5748.59
798.90	5521.78
799.34	5190.48
799.79	5866.18
800.23	5490.48
800.67	5151.20
801.11	5517.79
801.55	5451.85
801.99	5209.46
802.44	5717.61
802.88	5955.79
803.32	5600.71
803.76	5461.84
804.20	5361.28
804.64	5285.37
805.09	5922.48
805.53	6099.06
805.97	5969.12
806.41	5528.78
806.85	6099.06
807.29	5296.36
807.74	5411.56
808.18	5165.85
808.62	5557.75
809.06	5408.90
809.50	5214.79
809.94	5156.19
810.38	5513.46
810.82	5879.50
811.27	6559.67
811.71	5275.05
812.15	5227.77
812.59	5542.76
813.03	5941.80
813.47	5565.41
813.91	5376.27
814.35	5539.10
814.79	5469.50
815.23	5402.90
815.67	5176.83
816.12	5133.55
816.56	5196.14
817.00	5579.73
817.44	5325.99
817.88	5642.34
818.32	5194.81
818.76	5501.14
819.20	5701.29
819.64	5197.81
820.08	5458.85
820.52	5252.07
820.96	5373.60
821.40	5134.55
821.84	5823.20
822.28	5111.58
822.72	5376.60
823.16	5337.31
823.60	5098.27
824.04	5385.92
824.48	5423.88
824.92	5452.52
825.36	5437.87
825.80	5107.92
826.24	5259.73
826.68	4903.53
827.12	5339.97
827.56	5533.11
828.00	5679.31
828.44	5194.81
828.88	5594.72
829.32	5445.19
829.76	5171.84
830.20	5781.90
830.64	5290.70
831.08	6033.75
831.52	5617.03
831.96	5485.15
832.40	5036.02
832.84	5337.31
833.28	5296.69
833.72	5725.94
834.16	5563.08
834.60	5336.64
835.04	5226.44
835.48	5642.01
835.91	5331.65
836.35	5442.53
836.79	5315.00
837.23	5601.38
837.67	5165.51
838.11	5155.19
838.55	5430.87
838.99	5373.27
839.43	5844.86
839.87	6049.08
840.30	5466.51
840.74	5775.90
841.18	4972.10
841.62	5190.15
842.06	5162.52
842.50	5241.75
842.94	5511.13
843.38	5348.30
843.81	5518.45
844.25	5349.30
844.69	5160.19
845.13	5509.13
845.57	5287.37
846.01	5554.75
846.45	5259.40
846.88	5166.85
847.32	5409.90
847.76	5239.76
848.20	5292.69
848.64	5311.01
849.08	5512.13
849.51	5744.59
849.95	5512.79
850.39	5303.68
850.83	5626.69
851.27	5172.17
851.70	5428.54
852.14	5714.62
852.58	5273.38
853.02	5180.16
853.46	5542.10
853.89	5010.38
854.33	5597.38
854.77	5078.96
855.21	5173.84
855.65	5685.31
856.08	5821.87
856.52	5356.62
856.96	5494.81
857.40	5347.63
857.83	5073.97
858.27	5691.97
858.71	4951.13
859.15	5158.19
859.58	5225.44
860.02	5255.74
860.46	5420.55
860.89	5610.04
861.33	5200.47
861.77	5348.63
862.21	5492.15
862.64	5225.77
863.08	5247.75
863.52	5549.09
863.95	5217.78
864.39	5334.98
864.83	5351.29
865.27	4986.75
865.70	5319.00
866.14	4918.18
866.58	5477.83
867.01	5094.27
867.45	5445.86
867.89	5265.06
868.32	5232.43
868.76	5468.84
869.20	5336.31
869.63	5758.58
870.07	6199.03
870.51	5009.05
870.94	5274.38
871.38	5338.97
871.82	5152.20
872.25	5404.90
872.69	5540.10
873.13	5297.02
873.56	5675.31
874.00	5605.37
874.43	5243.75
874.87	5098.60
875.31	5692.30
875.74	4983.42
876.18	5433.21
876.61	5324.66
877.05	5304.01
877.49	5306.68
877.92	5259.07
878.36	5375.93
878.79	5282.37
879.23	5817.21
879.67	5116.58
880.10	5058.32
880.54	5211.12
880.97	5317.00
881.41	5566.74
881.84	5277.71
882.28	5262.40
882.72	5216.78
883.15	5264.73
883.59	5103.26
884.02	5491.81
884.46	5358.62
884.89	5420.55
885.33	5553.42
885.76	5194.81
886.20	5121.24
886.63	5823.20
887.07	5073.97
887.50	5064.64
887.94	5306.34
888.37	5203.47
888.81	6307.00
889.24	5018.37
889.68	5555.42
890.11	5181.16
890.55	5491.15
890.98	5416.89
891.42	5048.00
891.85	5159.85
892.29	5215.12
892.72	5089.94
893.16	5198.14
893.59	5391.25
894.03	5187.49
894.46	5501.14
894.90	5122.90
895.33	5014.38
895.77	5325.99
896.20	5397.91
896.63	5041.01
897.07	5043.67
897.50	5043.67
897.94	5284.70
898.37	5522.78
898.81	5063.65
899.24	5023.37
899.68	5053.66
900.11	5468.50
900.54	5359.28
900.98	5107.92
901.41	5740.26
901.85	5849.52
902.28	5012.38
902.71	5117.57
903.15	5779.57
903.58	5183.82
904.02	5400.57
904.45	5116.24
904.88	5175.50
905.32	4955.79
905.75	5645.67
906.18	5240.09
906.62	5552.09
907.05	5334.98
907.48	5138.88
907.92	5393.58
908.35	5678.65
908.79	5194.48
909.22	4928.17
909.65	5280.04
910.09	5299.35
910.52	5119.90
910.95	5086.61
911.38	5106.92
911.82	5285.70
912.25	5130.89
912.68	5310.01
913.12	5338.97
913.55	5171.17
913.98	4959.45
914.42	5041.01
914.85	5128.89
915.28	5062.98
915.72	5434.54
916.15	5101.93
916.58	5486.49
917.01	5083.95
917.45	5444.53
917.88	5031.02
918.31	5202.13
918.74	5228.44
919.18	5362.95
919.61	5477.49
920.04	5237.76
920.47	5778.57
920.91	5354.29
921.34	5152.86
921.77	5033.35
922.20	5009.39
922.64	5357.29
923.07	5711.29
923.50	5397.58
923.93	4876.91
924.37	5406.23
924.80	4999.40
925.23	5475.83
925.66	5929.47
926.09	5130.22
926.53	5430.87
926.96	4897.21
927.39	5843.52
927.82	5193.48
928.25	4896.54
928.69	5406.23
929.12	5063.31
929.55	5244.42
929.98	5400.91
930.41	4980.76
930.84	5190.15
931.28	4699.84
931.71	5649.34
932.14	5381.59
932.57	5933.47
933.00	5036.68
933.43	5360.95
933.86	5316.33
934.30	5279.04
934.73	5154.86
935.16	4757.75
935.59	4995.74
936.02	4869.25
936.45	5147.87
936.88	4788.37
937.31	5273.72
937.75	4945.14
938.18	5019.70
938.61	5249.74
939.04	4885.56
939.47	5097.60
939.90	5331.32
940.33	5833.86
940.76	4905.86
941.19	5376.93
941.62	4872.91
942.05	4963.78
942.48	5285.04
942.91	4802.02
943.35	4743.77
943.78	5267.39
944.21	5189.15
944.64	5224.77
945.07	5066.64
945.50	5104.92
945.93	5158.19
946.36	5407.23
946.79	5037.68
947.22	5106.92
947.65	5226.11
948.08	4774.73
948.51	4813.00
948.94	4872.58
949.37	5872.84
949.80	5460.84
950.23	5004.73
950.66	4913.19
951.09	5200.14
951.52	4796.03
951.95	5281.71
952.38	4993.74
952.81	5680.64
953.24	4768.07
953.67	4928.50
954.10	4957.46
954.53	4932.49
954.96	4998.73
955.39	5231.77
955.82	4849.28
956.25	5275.05
956.68	6101.39
957.11	4824.32
957.53	5205.13
957.96	5147.20
958.39	4944.48
958.82	4953.13
959.25	4906.53
959.68	4662.57
960.11	5077.96
960.54	5224.44
960.97	5226.44
961.40	5360.95
961.83	5312.00
962.26	4947.80
962.68	5203.13
963.11	5021.70
963.54	5133.22
963.97	5094.60
964.40	4925.50
964.83	5392.58
965.26	4983.42
965.69	5060.98
966.11	5296.69
966.54	4898.21
966.97	4989.41
967.40	5429.88
967.83	6505.00
968.26	5324.66
968.69	5109.25
969.11	5266.06
969.54	4909.53
969.97	5027.69
970.40	5334.65
970.83	5036.68
971.26	5143.21
971.68	4928.17
972.11	4983.75
972.54	5065.98
972.97	5325.99
973.40	5070.30
973.82	5371.60
974.25	5186.49
974.68	4971.44
975.11	4963.78
975.54	4917.51
975.96	5146.87
976.39	4907.86
976.82	5348.63
977.25	5177.17
977.67	5078.29
978.10	5147.54
978.53	5040.01
978.96	5425.55
979.38	5313.67
979.81	5031.36
980.24	5284.37
980.67	5482.49
981.09	5185.16
981.52	5130.56
981.95	5033.02
982.38	5135.55
982.80	4994.74
983.23	5482.16
983.66	5382.93
984.08	4969.44
984.51	4744.11
984.94	5104.92
985.37	5315.67
985.79	5075.63
986.22	4977.10
986.65	5283.04
987.07	5131.89
987.50	5175.17
987.93	5155.53
988.35	5222.78
988.78	5185.49
989.21	5078.29
989.63	5300.35
990.06	5159.85
990.49	5285.70
990.91	5684.97
991.34	5091.61
991.77	4978.76
992.19	5174.50
992.62	5060.98
993.05	5063.65
993.47	5346.30
993.90	5366.28
994.32	5185.82
994.75	5153.20
995.18	4833.30
995.60	4919.51
996.03	4767.07
996.45	5477.16
996.88	5352.63
997.31	4984.75
997.73	5199.80
998.16	4918.18
998.58	5547.43
999.01	5155.53
999.44	5171.84
999.86	5557.75
1000.29	4943.48
1000.71	5208.79
1001.14	5359.95
1001.56	5163.52
1001.99	5215.12
1002.41	5113.25
1002.84	5332.65
1003.27	4926.17
1003.69	5214.12
1004.12	5210.12
1004.54	5485.82
1004.97	5106.59
1005.39	4858.93
1005.82	5238.42
1006.24	5109.58
1006.67	4938.48
1007.09	4824.32
1007.52	5058.65
1007.94	4998.40
1008.37	6322.33
1008.79	5371.60
1009.22	5403.24
1009.64	5198.14
1010.07	5258.07
1010.49	5412.56
1010.92	5071.97
1011.34	5305.68
1011.77	5138.21
1012.19	5248.41
1012.62	5278.38
1013.04	4917.85
1013.46	5511.13
1013.89	4781.72
1014.31	5352.96
1014.74	4932.16
1015.16	5122.57
1015.59	4877.57
1016.01	5202.80
1016.44	5027.69
1016.86	10069.56
1017.28	4990.08
1017.71	4743.77
1018.13	6035.08
1018.56	5470.50
1018.98	5304.01
1019.40	5036.68
1019.83	5072.63
1020.25	5208.79
1020.68	5234.10
1021.10	5230.10
1021.52	5105.26
1021.95	6238.68
1022.37	5443.20
1022.79	5325.99
1023.22	5334.31
1023.64	5168.51
1024.07	5210.79
1024.49	5292.36
1024.91	4932.83
1025.34	4910.19
1025.76	5785.23
1026.18	5267.06
1026.61	5197.14
1027.03	5180.16
1027.45	5227.44
1027.88	5001.73
1028.30	5825.54
1028.72	5185.82
1029.15	5124.23
1029.57	5260.73
1029.99	5559.42
1030.41	4857.27
1030.84	5212.46
1031.26	5349.96
1031.68	4984.75
1032.11	5429.21
1032.53	4941.48
1032.95	4879.90
1033.37	5232.76
1033.80	5374.27
1034.22	5005.39
1034.64	5729.27
1035.06	4984.42
1035.49	4983.09
1035.91	5173.84
1036.33	4780.38
1036.75	5354.96
1037.18	5364.61
1037.60	5296.02
1038.02	5447.86
1038.44	5560.41
1038.87	5051.99
1039.29	5048.00
1039.71	5205.13
1040.13	5000.73
1040.55	5554.09
1040.98	5477.83
1041.40	5314.00
1041.82	5399.57
1042.24	5056.65
1042.66	5329.32
1043.09	4862.26
1043.51	5020.37
1043.93	4996.40
1044.35	4830.31
1044.77	5112.25
1045.20	5210.12
1045.62	4868.59
1046.04	5158.52
1046.46	5342.30
1046.88	4850.61
1047.30	5318.66
1047.72	5281.04
1048.15	5342.64
1048.57	5027.03
1048.99	5043.67
1049.41	5218.78
1049.83	5305.01
1050.25	5625.02
1050.67	5426.21
1051.09	5098.27
1051.52	5203.80
1051.94	4635.28
1052.36	5121.90
1052.78	4682.87
1053.20	5054.99
1053.62	4927.17
1054.04	5184.16
1054.46	5214.79
1054.88	5650.67
1055.30	5432.21
1055.72	5345.30
1056.14	5191.15
1056.57	6340.00
1056.99	4833.64
1057.41	5229.77
1057.83	5262.40
1058.25	4960.45
1058.67	4994.74
1059.09	4957.12
1059.51	5319.66
1059.93	5110.58
1060.35	4976.76
1060.77	5266.72
1061.19	5477.16
1061.61	5112.91
1062.03	5019.37
1062.45	4895.21
1062.87	5298.02
1063.29	5350.63
1063.71	5048.33
1064.13	4854.61
1064.55	4733.46
1064.97	5338.97
1065.39	5088.95
1065.81	5038.01
1066.23	5111.58
1066.65	4974.43
1067.07	5592.72
1067.49	5120.90
1067.91	4935.49
1068.33	4752.76
1068.75	5343.97
1069.17	5445.86
1069.59	5336.64
1070.00	4978.10
1070.42	5227.44
1070.84	4949.80
1071.26	4795.36
1071.68	4713.82
1072.10	5257.07
1072.52	4979.09
1072.94	4752.10
1073.36	4889.89
1073.78	4921.84
1074.20	5095.60
1074.62	4904.87
1075.03	4860.60
1075.45	4971.77
1075.87	5325.66
1076.29	4922.51
1076.71	5232.43
1077.13	5546.76
1077.55	4652.25
1077.97	5107.92
1078.38	4949.14
1078.80	5049.66
1079.22	5214.79
1079.64	4998.73
1080.06	4983.09
1080.48	5184.49
1080.89	5049.00
1081.31	5014.05
1081.73	5043.01
1082.15	5067.64
1082.57	5305.35
1082.99	5065.98
1083.40	4972.44
1083.82	5387.92
1084.24	4816.00
1084.66	4925.17
1085.08	5134.55
1085.49	4673.55
1085.91	5208.79
1086.33	12504.51
1086.75	5092.94
1087.17	4870.58
1087.58	4886.23
1088.00	4984.09
1088.42	5329.65
1088.84	5011.05
1089.25	4807.68
1089.67	4985.42
1090.09	4935.49
1090.51	4863.93
1090.92	5155.53
1091.34	4896.88
1091.76	5034.02
1092.18	4967.78
1092.59	5016.71
1093.01	4973.10
1093.43	5007.06
1093.84	4827.98
1094.26	5004.73
1094.68	5190.48
1095.10	4782.05
1095.51	4988.41
1095.93	4878.24
1096.35	5192.48
1096.76	5112.58
1097.18	5159.52
1097.60	4960.79
1098.01	4897.88
1098.43	4821.66
1098.85	4938.82
1099.26	4885.56
1099.68	5026.03
1100.10	4729.13
1100.51	4839.63
1100.93	4968.11
1101.35	4984.42
1101.76	5064.64
1102.18	6862.12
1102.60	5383.26
1103.01	4539.44
1103.43	5055.66
1103.84	4911.86
1104.26	4802.02
1104.68	4960.79
1105.09	4509.49
1105.51	4615.31
1105.92	5260.06
1106.34	4603.33
1106.76	5059.65
1107.17	5025.36
1107.59	5021.70
1108.00	4543.10
1108.42	4836.30
1108.83	4564.73
1109.25	4799.02
1109.67	4623.30
1110.08	4634.28
1110.50	4508.16
1110.91	4808.34
1111.33	4625.96
1111.74	4580.70
1112.16	4891.89
1112.57	4920.84
1112.99	4676.55
1113.41	4763.08
1113.82	4684.53
1114.24	4863.93
1114.65	4733.12
1115.07	4646.93
1115.48	4676.21
1115.90	2113.50
1116.31	2169.04
1116.73	2158.73
1117.14	2159.06
>>>>>End Processed Spectral Data<<<<<
