SpectraSuite Data File
++++++++++++++++++++++++++++++++++++
Date: Mon Mar 10 17:43:40 EET 2014
User: OO Maya
Dark Spectrum Present: No
Reference Spectrum Present: No
Number of Sampled Component Spectra: 1
Spectrometers: MAYP11278
Integration Time (usec): 300000 (MAYP11278)
Spectra Averaged: 20 (MAYP11278)
Boxcar Smoothing: 0 (MAYP11278)
Correct for Electrical Dark: No (MAYP11278)
Strobe/Lamp Enabled: No (MAYP11278)
Correct for Detector Non-linearity: No (MAYP11278)
Correct for Stray Light: No (MAYP11278)
Number of Pixels in Processed Spectrum: 2068
>>>>>Begin Processed Spectral Data<<<<<
188,05	2308,25
188,53	2222,75
189,01	2193,80
189,49	2194,50
189,96	2700,40
190,44	2729,25
190,92	2728,30
191,40	2734,15
191,88	2771,00
192,36	2732,45
192,83	2728,80
193,31	2705,20
193,79	2738,75
194,27	2724,30
194,75	2741,45
195,23	2725,05
195,70	2763,30
196,18	2727,40
196,66	2735,80
197,14	2826,25
197,62	2733,35
198,09	2706,40
198,57	2723,15
199,05	2709,05
199,53	2748,40
200,01	2758,85
200,48	2721,55
200,96	2725,40
201,44	2763,40
201,92	2754,35
202,39	2759,80
202,87	2705,05
203,35	2753,05
203,83	2717,15
204,31	2766,50
204,78	2785,35
205,26	2724,60
205,74	2721,00
206,22	2785,60
206,69	2732,95
207,17	2757,35
207,65	2824,10
208,13	2746,35
208,60	2767,55
209,08	2734,40
209,56	2769,00
210,04	2754,90
210,51	2739,20
210,99	2739,90
211,47	2760,00
211,94	2740,50
212,42	2727,30
212,90	2804,05
213,38	2758,15
213,85	2730,50
214,33	2809,15
214,81	2758,05
215,29	2792,60
215,76	2757,40
216,24	2766,60
216,72	2765,30
217,19	2764,00
217,67	2723,20
218,15	2744,45
218,62	2789,35
219,10	2703,60
219,58	2727,65
220,05	2731,05
220,53	2747,40
221,01	2882,30
221,49	2738,25
221,96	2778,15
222,44	2734,35
222,92	2776,25
223,39	2734,85
223,87	2778,40
224,35	2753,35
224,82	2737,40
225,30	2721,20
225,78	2746,25
226,25	2731,75
226,73	2752,35
227,21	2785,65
227,68	2738,55
228,16	2769,15
228,63	2770,75
229,11	2770,75
229,59	2747,50
230,06	2752,00
230,54	2736,05
231,02	2770,30
231,49	2795,50
231,97	2754,40
232,45	2755,35
232,92	2725,10
233,40	2755,60
233,87	2759,75
234,35	2875,65
234,83	2761,80
235,30	2733,50
235,78	2739,70
236,25	2716,60
236,73	2787,30
237,21	2822,35
237,68	2737,80
238,16	2766,05
238,63	2755,15
239,11	2754,25
239,59	2750,70
240,06	2721,30
240,54	2771,85
241,01	2789,15
241,49	2755,35
241,96	2743,15
242,44	2774,90
242,92	2793,40
243,39	2717,55
243,87	2733,35
244,34	2783,20
244,82	2805,60
245,29	2743,20
245,77	2805,85
246,24	2792,35
246,72	2739,75
247,20	2750,70
247,67	2753,15
248,15	2763,45
248,62	2775,85
249,10	2713,50
249,57	2759,70
250,05	2777,70
250,52	2764,80
251,00	2802,05
251,47	2752,20
251,95	2824,65
252,42	2796,15
252,90	2743,25
253,37	2795,45
253,85	2757,75
254,32	2751,55
254,80	2766,15
255,27	2773,75
255,75	2783,75
256,22	2740,70
256,70	2768,50
257,17	2772,60
257,65	2788,20
258,12	2857,60
258,60	2766,45
259,07	2740,75
259,55	2766,70
260,02	2778,90
260,50	2816,00
260,97	2750,30
261,45	2745,45
261,92	2799,55
262,40	2729,80
262,87	2770,10
263,35	2762,00
263,82	2721,55
264,30	2785,30
264,77	2797,25
265,25	2745,70
265,72	2765,15
266,19	2765,85
266,67	2779,05
267,14	2747,20
267,62	2749,35
268,09	2769,70
268,57	2769,85
269,04	2710,80
269,51	2732,55
269,99	2747,55
270,46	2778,60
270,94	2796,60
271,41	2746,00
271,89	2771,35
272,36	2724,90
272,83	2721,55
273,31	2696,75
273,78	2765,65
274,26	2880,70
274,73	2776,40
275,20	2786,80
275,68	2740,35
276,15	2754,30
276,63	2776,70
277,10	2782,55
277,57	2724,20
278,05	2755,80
278,52	2727,15
279,00	2898,00
279,47	2746,10
279,94	2736,55
280,42	2888,35
280,89	2794,40
281,36	2865,05
281,84	2740,10
282,31	2798,75
282,78	2752,90
283,26	2755,40
283,73	2777,75
284,21	2736,80
284,68	2720,70
285,15	2787,15
285,63	2756,60
286,10	2769,30
286,57	2765,30
287,05	2719,95
287,52	2769,15
287,99	2816,00
288,47	2753,50
288,94	2770,35
289,41	2702,10
289,89	2807,00
290,36	2737,70
290,83	2769,75
291,30	2748,30
291,78	2786,45
292,25	2831,40
292,72	2734,75
293,20	2795,35
293,67	2746,70
294,14	2781,80
294,62	2769,05
295,09	2738,45
295,56	2768,50
296,03	2774,45
296,51	2816,50
296,98	2812,15
297,45	2778,50
297,93	2779,65
298,40	2779,75
298,87	2744,70
299,34	2808,80
299,82	2752,65
300,29	2774,45
300,76	2751,05
301,23	2797,35
301,71	2785,65
302,18	2788,00
302,65	2729,30
303,12	2790,70
303,60	2796,75
304,07	2738,10
304,54	2746,35
305,01	2738,20
305,49	2767,45
305,96	2772,85
306,43	2766,70
306,90	2776,60
307,38	2755,70
307,85	2750,60
308,32	2774,85
308,79	2746,15
309,27	2792,60
309,74	2796,50
310,21	2773,40
310,68	2772,55
311,15	2770,65
311,63	2750,00
312,10	2791,65
312,57	2758,65
313,04	2827,45
313,51	2749,60
313,99	2747,55
314,46	2771,45
314,93	2749,65
315,40	2739,60
315,87	2794,60
316,34	2774,55
316,82	2767,40
317,29	2783,50
317,76	2768,45
318,23	2862,70
318,70	2770,95
319,17	2757,50
319,65	2722,35
320,12	2781,75
320,59	2820,05
321,06	2783,90
321,53	2754,15
322,00	2713,30
322,48	2732,40
322,95	2823,35
323,42	2752,90
323,89	2846,80
324,36	2721,30
324,83	2771,00
325,30	2759,50
325,78	2750,65
326,25	2753,75
326,72	2753,20
327,19	2781,40
327,66	2775,90
328,13	2778,35
328,60	2768,10
329,07	2754,65
329,54	2746,35
330,02	2750,45
330,49	2734,65
330,96	2792,50
331,43	2777,70
331,90	2831,10
332,37	2744,60
332,84	2835,00
333,31	2789,70
333,78	2781,35
334,25	2811,15
334,72	2773,40
335,20	2785,60
335,67	2884,20
336,14	2729,50
336,61	2757,95
337,08	2744,10
337,55	2767,45
338,02	2749,10
338,49	2757,90
338,96	2807,75
339,43	2797,05
339,90	2732,95
340,37	2748,40
340,84	2732,45
341,31	2780,20
341,78	2794,85
342,25	2741,20
342,72	2767,80
343,19	2790,40
343,67	2767,45
344,14	2742,95
344,61	2757,40
345,08	2739,00
345,55	2763,65
346,02	2790,15
346,49	2748,00
346,96	2744,70
347,43	2820,85
347,90	2745,30
348,37	2796,90
348,84	2763,65
349,31	2723,05
349,78	2771,15
350,25	2787,30
350,72	2764,95
351,19	2741,20
351,66	2774,10
352,13	2823,55
352,60	2769,45
353,07	2755,80
353,54	2769,05
354,01	2785,05
354,48	2777,30
354,94	2791,60
355,41	2774,10
355,88	2812,30
356,35	2742,60
356,82	2822,55
357,29	2732,25
357,76	2837,05
358,23	2782,20
358,70	2729,25
359,17	2736,65
359,64	2751,90
360,11	2749,15
360,58	2788,60
361,05	2810,95
361,52	2754,40
361,99	2757,60
362,46	2764,90
362,93	2759,95
363,39	2773,00
363,86	2839,80
364,33	2783,75
364,80	2743,05
365,27	2778,80
365,74	2745,55
366,21	2729,30
366,68	2769,40
367,15	2764,00
367,62	3407,55
368,09	2699,40
368,55	2737,35
369,02	2790,80
369,49	2728,85
369,96	2791,20
370,43	2763,40
370,90	2752,85
371,37	2751,25
371,84	2779,30
372,31	2738,95
372,77	2719,85
373,24	2761,90
373,71	2772,85
374,18	2731,35
374,65	2735,45
375,12	2771,70
375,59	2709,05
376,05	2814,30
376,52	2747,70
376,99	2726,95
377,46	2727,30
377,93	2767,15
378,40	2768,35
378,86	2761,70
379,33	2758,95
379,80	2761,15
380,27	2780,95
380,74	2808,85
381,21	2766,60
381,67	2816,10
382,14	2814,25
382,61	2721,50
383,08	2774,35
383,55	2753,40
384,02	2795,80
384,48	2772,20
384,95	2942,25
385,42	2765,00
385,89	2749,55
386,36	2754,60
386,82	2822,95
387,29	2732,60
387,76	2723,05
388,23	2791,70
388,69	2766,70
389,16	2803,60
389,63	2741,25
390,10	2782,90
390,57	2768,80
391,03	2775,60
391,50	2770,35
391,97	2766,10
392,44	2774,20
392,90	2748,40
393,37	2756,85
393,84	2846,95
394,31	2763,60
394,77	2797,25
395,24	2738,60
395,71	2783,45
396,18	2931,75
396,64	2727,60
397,11	2777,50
397,58	2792,05
398,05	2726,95
398,51	2755,70
398,98	2743,65
399,45	2732,85
399,92	2793,15
400,38	2725,25
400,85	2751,35
401,32	2746,70
401,78	2782,00
402,25	2765,85
402,72	2761,60
403,18	2734,20
403,65	2811,00
404,12	2762,10
404,59	2805,35
405,05	2827,40
405,52	2801,45
405,99	2732,05
406,45	2790,70
406,92	2773,70
407,39	2836,50
407,85	2763,70
408,32	2766,80
408,79	2779,70
409,25	2725,35
409,72	2801,50
410,19	2727,10
410,65	2804,35
411,12	2734,65
411,59	2807,95
412,05	2753,95
412,52	2703,80
412,99	2777,45
413,45	2753,80
413,92	2771,85
414,39	2780,90
414,85	2817,65
415,32	2750,30
415,78	2809,00
416,25	2777,05
416,72	2764,95
417,18	2827,65
417,65	2776,30
418,12	2753,55
418,58	2764,10
419,05	2766,95
419,51	2791,25
419,98	2738,65
420,45	2785,65
420,91	2727,35
421,38	2764,30
421,84	2748,55
422,31	2778,40
422,78	2746,60
423,24	2751,20
423,71	2768,40
424,17	2791,50
424,64	2753,05
425,11	2791,00
425,57	2758,50
426,04	2804,40
426,50	2752,45
426,97	2802,90
427,43	2781,05
427,90	2793,75
428,37	2727,80
428,83	2797,55
429,30	2773,05
429,76	2760,50
430,23	2769,10
430,69	2873,50
431,16	2725,35
431,62	2753,20
432,09	2819,50
432,55	2807,70
433,02	2758,25
433,48	2738,30
433,95	2766,35
434,42	2748,10
434,88	2783,50
435,35	2722,85
435,81	2783,85
436,28	2768,35
436,74	2730,70
437,21	2790,75
437,67	2779,05
438,14	2768,95
438,60	2741,25
439,07	2754,20
439,53	2896,95
440,00	2783,75
440,46	2787,05
440,93	2802,45
441,39	2734,70
441,86	2750,00
442,32	2844,25
442,79	2731,15
443,25	2765,50
443,72	2767,60
444,18	2722,80
444,64	2829,80
445,11	2784,50
445,57	2769,10
446,04	2765,40
446,50	2774,10
446,97	2757,50
447,43	2775,55
447,90	2742,75
448,36	2741,40
448,83	2782,10
449,29	2783,65
449,75	2755,85
450,22	2735,30
450,68	2729,50
451,15	2745,55
451,61	2767,95
452,08	2783,90
452,54	2732,65
453,00	2792,80
453,47	2755,95
453,93	2757,25
454,40	2766,00
454,86	2773,50
455,32	2742,05
455,79	2762,20
456,25	2786,50
456,72	2744,20
457,18	2809,00
457,64	2754,65
458,11	2755,70
458,57	2725,95
459,04	2771,05
459,50	2760,45
459,96	2768,35
460,43	2748,75
460,89	2727,70
461,36	2810,25
461,82	2790,10
462,28	2741,60
462,75	2719,75
463,21	2797,90
463,67	2745,00
464,14	2767,55
464,60	2769,70
465,06	2730,25
465,53	2746,85
465,99	2792,45
466,45	2761,20
466,92	2776,35
467,38	2778,35
467,84	2749,80
468,31	2770,30
468,77	2777,60
469,23	2762,45
469,70	2734,55
470,16	2777,40
470,62	2761,95
471,09	2742,20
471,55	2749,40
472,01	2737,10
472,48	2748,00
472,94	2757,45
473,40	2806,90
473,87	2757,55
474,33	2736,00
474,79	2761,85
475,25	2730,25
475,72	2776,75
476,18	2761,65
476,64	2771,20
477,11	2759,15
477,57	2757,45
478,03	2807,75
478,49	2771,40
478,96	2794,75
479,42	2738,25
479,88	2827,40
480,35	2780,65
480,81	2766,40
481,27	2748,50
481,73	2757,90
482,20	2767,00
482,66	2729,80
483,12	2760,45
483,58	2725,50
484,05	2751,00
484,51	2814,80
484,97	2767,15
485,43	2756,60
485,89	2715,10
486,36	2754,55
486,82	2709,25
487,28	2778,20
487,74	2715,80
488,21	2714,20
488,67	2741,90
489,13	2765,65
489,59	2755,60
490,05	2791,40
490,52	2719,40
490,98	2768,00
491,44	2723,70
491,90	2742,15
492,36	2715,05
492,83	2789,35
493,29	2770,20
493,75	2758,85
494,21	2735,20
494,67	2748,40
495,14	2739,70
495,60	2724,90
496,06	2761,05
496,52	2739,30
496,98	2751,10
497,44	2826,40
497,91	2793,10
498,37	2733,80
498,83	2761,65
499,29	2751,80
499,75	2843,80
500,21	2760,45
500,67	2748,40
501,14	2757,15
501,60	2743,00
502,06	2772,95
502,52	2757,40
502,98	2758,60
503,44	2758,55
503,90	2776,10
504,37	2742,30
504,83	2775,30
505,29	2767,85
505,75	2729,00
506,21	2760,35
506,67	2784,55
507,13	2761,30
507,59	2780,05
508,05	2766,90
508,51	2740,80
508,98	2737,90
509,44	2713,95
509,90	2745,20
510,36	2752,15
510,82	2743,10
511,28	2800,10
511,74	2812,45
512,20	2734,00
512,66	2710,80
513,12	2735,35
513,58	2782,15
514,04	2703,20
514,51	2790,95
514,97	2823,10
515,43	2705,25
515,89	2769,80
516,35	2790,50
516,81	2785,40
517,27	2855,20
517,73	2774,20
518,19	2756,45
518,65	2900,45
519,11	2755,20
519,57	2731,55
520,03	2725,90
520,49	2740,40
520,95	2760,60
521,41	2772,65
521,87	2786,00
522,33	2749,10
522,79	2724,05
523,25	2818,55
523,71	2791,30
524,17	2740,00
524,63	2808,65
525,09	2776,65
525,55	2780,85
526,01	2804,40
526,47	2770,40
526,93	2758,30
527,39	2754,75
527,85	2752,40
528,31	2785,55
528,77	2774,70
529,23	2744,40
529,69	2727,50
530,15	2776,80
530,61	2779,90
531,07	2711,80
531,53	2796,20
531,99	2755,05
532,45	2757,25
532,91	2756,75
533,37	2774,00
533,83	2748,95
534,29	2717,85
534,75	2750,70
535,21	2743,70
535,67	2760,65
536,12	2741,50
536,58	2776,50
537,04	2731,10
537,50	2774,95
537,96	2745,85
538,42	2751,85
538,88	2816,45
539,34	2784,50
539,80	2952,30
540,26	2717,00
540,72	2815,15
541,18	2758,05
541,63	2718,05
542,09	2779,85
542,55	2768,40
543,01	2741,05
543,47	2856,45
543,93	2724,20
544,39	2836,45
544,85	2782,95
545,31	2752,00
545,76	2751,10
546,22	2792,45
546,68	2757,15
547,14	2775,80
547,60	2783,80
548,06	2775,75
548,52	2746,45
548,98	2751,00
549,43	2733,00
549,89	2836,95
550,35	2753,10
550,81	2722,20
551,27	2775,00
551,73	2764,20
552,19	2826,10
552,64	2767,55
553,10	2728,25
553,56	2779,90
554,02	2750,30
554,48	2729,80
554,93	2769,75
555,39	2762,25
555,85	2819,45
556,31	2763,00
556,77	2798,60
557,23	2717,50
557,68	2769,30
558,14	2832,85
558,60	2748,80
559,06	2748,90
559,52	2729,40
559,97	2732,80
560,43	2727,60
560,89	2754,60
561,35	2749,85
561,81	2757,30
562,26	2742,20
562,72	2734,15
563,18	2761,65
563,64	2789,45
564,09	2728,45
564,55	2768,65
565,01	2751,15
565,47	2748,95
565,92	2766,40
566,38	2791,90
566,84	2747,05
567,30	2732,65
567,75	2762,25
568,21	2788,80
568,67	2739,40
569,13	2757,40
569,58	2786,00
570,04	2765,35
570,50	2753,75
570,96	2783,65
571,41	2781,85
571,87	2753,55
572,33	2768,30
572,78	2776,65
573,24	2735,75
573,70	2736,95
574,16	2765,10
574,61	2799,00
575,07	2788,75
575,53	2721,65
575,98	2763,50
576,44	2703,20
576,90	2795,35
577,36	2750,00
577,81	2749,40
578,27	2723,85
578,73	2807,20
579,18	2774,50
579,64	2735,90
580,10	2776,80
580,55	2760,55
581,01	2762,55
581,47	2757,85
581,92	2763,00
582,38	2754,65
582,84	2723,05
583,29	2757,20
583,75	2757,30
584,21	2748,30
584,66	2781,30
585,12	2737,95
585,57	2847,25
586,03	2747,75
586,49	2752,65
586,94	2756,90
587,40	2746,45
587,86	2788,25
588,31	2734,55
588,77	2767,30
589,22	2749,45
589,68	2733,90
590,14	2770,70
590,59	2790,20
591,05	2746,00
591,51	2720,35
591,96	2806,80
592,42	2747,40
592,87	2769,70
593,33	2757,80
593,78	2783,85
594,24	2750,65
594,70	2748,50
595,15	2802,65
595,61	2745,60
596,06	2725,50
596,52	2807,15
596,98	2784,40
597,43	2796,65
597,89	2763,60
598,34	2715,05
598,80	2759,00
599,25	2799,60
599,71	2739,85
600,16	2779,50
600,62	2799,75
601,08	2774,10
601,53	2780,45
601,99	2723,75
602,44	2869,60
602,90	2745,25
603,35	2754,45
603,81	2714,50
604,26	2714,65
604,72	2775,55
605,17	2749,40
605,63	2772,15
606,08	2759,90
606,54	2718,40
606,99	2757,55
607,45	2751,25
607,90	2752,65
608,36	2779,15
608,81	2759,25
609,27	2846,60
609,72	2790,50
610,18	2757,20
610,63	2738,00
611,09	2774,55
611,54	2724,25
612,00	2823,15
612,45	2778,80
612,91	2750,95
613,36	2865,40
613,82	2716,80
614,27	2717,40
614,73	2722,05
615,18	2720,25
615,64	2747,50
616,09	2749,70
616,54	2731,30
617,00	2748,85
617,45	2749,05
617,91	2784,20
618,36	2743,60
618,82	2740,65
619,27	2745,50
619,72	2781,00
620,18	2740,60
620,63	2788,75
621,09	2791,90
621,54	2747,35
622,00	2789,30
622,45	2801,40
622,90	2797,05
623,36	2735,10
623,81	2733,70
624,27	2795,30
624,72	2721,45
625,17	2748,90
625,63	2759,05
626,08	2731,45
626,54	2757,25
626,99	2764,65
627,44	2728,35
627,90	2783,95
628,35	2780,80
628,81	2706,65
629,26	2754,20
629,71	2758,40
630,17	2738,95
630,62	2769,25
631,07	2757,35
631,53	2780,90
631,98	2769,05
632,43	2792,45
632,89	2737,70
633,34	2737,00
633,79	2731,55
634,25	2738,55
634,70	2724,80
635,15	2751,55
635,61	2733,30
636,06	2723,40
636,51	2758,90
636,97	2756,70
637,42	2717,45
637,87	2775,20
638,33	2789,85
638,78	2739,30
639,23	2750,45
639,69	2729,15
640,14	2709,80
640,59	2763,40
641,05	2786,40
641,50	2715,70
641,95	2739,55
642,40	2745,60
642,86	2716,15
643,31	2735,55
643,76	2774,00
644,22	2737,85
644,67	2718,30
645,12	2741,20
645,57	2724,15
646,03	2750,90
646,48	2762,25
646,93	2767,55
647,38	2777,75
647,84	2755,75
648,29	2763,40
648,74	2719,30
649,19	2787,85
649,65	2770,90
650,10	2908,35
650,55	2725,70
651,00	2731,70
651,46	2741,90
651,91	2768,05
652,36	2722,55
652,81	2746,35
653,27	2740,85
653,72	2728,20
654,17	2755,20
654,62	2759,30
655,07	2743,45
655,53	2716,45
655,98	2782,85
656,43	2729,65
656,88	2752,10
657,33	2777,65
657,79	2771,35
658,24	2736,20
658,69	2762,95
659,14	2716,20
659,59	2909,05
660,05	2736,70
660,50	2791,90
660,95	2749,10
661,40	2722,75
661,85	2743,80
662,30	2723,25
662,76	2710,15
663,21	2766,50
663,66	2740,80
664,11	2739,15
664,56	2742,70
665,01	2722,35
665,47	2756,15
665,92	2713,75
666,37	2759,55
666,82	2758,85
667,27	2854,35
667,72	2799,85
668,17	2722,20
668,62	2771,35
669,08	2725,85
669,53	2833,85
669,98	2700,75
670,43	2728,05
670,88	2793,20
671,33	2755,95
671,78	2813,15
672,23	2837,35
672,69	2748,55
673,14	2750,60
673,59	2796,95
674,04	2874,35
674,49	2757,70
674,94	2766,50
675,39	2708,45
675,84	2720,50
676,29	2754,30
676,74	2744,55
677,19	2749,40
677,64	2742,80
678,10	2846,25
678,55	2733,45
679,00	2747,20
679,45	2760,40
679,90	2733,65
680,35	2746,85
680,80	2746,05
681,25	2692,00
681,70	2693,70
682,15	2731,75
682,60	2754,85
683,05	2771,65
683,50	2763,50
683,95	2764,85
684,40	2791,30
684,85	2768,30
685,30	2759,35
685,75	2762,75
686,20	2739,40
686,65	2714,95
687,10	2751,65
687,55	2735,40
688,00	2750,45
688,45	2742,45
688,90	2853,40
689,35	2768,25
689,80	2704,05
690,25	2733,55
690,70	2757,55
691,15	2705,50
691,60	2745,95
692,05	2703,60
692,50	2752,50
692,95	2734,35
693,40	2772,80
693,85	2769,60
694,30	2754,40
694,75	2753,95
695,20	2919,30
695,65	2755,00
696,10	2752,40
696,55	2817,55
697,00	2749,65
697,45	2733,25
697,90	2762,05
698,35	2735,25
698,80	2769,45
699,24	2775,45
699,69	2731,45
700,14	2742,30
700,59	2777,40
701,04	2777,90
701,49	2904,00
701,94	2716,80
702,39	2807,70
702,84	2727,45
703,29	2731,70
703,74	2759,80
704,19	2746,30
704,63	2733,90
705,08	2790,80
705,53	2785,50
705,98	2786,20
706,43	2721,85
706,88	2779,90
707,33	2756,15
707,78	2745,95
708,22	2764,90
708,67	2782,50
709,12	2755,55
709,57	2738,50
710,02	2752,85
710,47	2751,85
710,92	2728,55
711,37	2774,45
711,81	2756,30
712,26	2753,90
712,71	2722,75
713,16	2828,15
713,61	2745,30
714,06	2761,50
714,50	2798,85
714,95	2790,50
715,40	2741,35
715,85	2754,60
716,30	2731,70
716,75	2742,55
717,19	2716,50
717,64	2711,60
718,09	2768,50
718,54	2812,35
718,99	2719,05
719,43	2722,15
719,88	2754,70
720,33	2751,15
720,78	2724,30
721,23	2765,05
721,67	2733,80
722,12	2774,05
722,57	2740,95
723,02	2715,85
723,47	2708,25
723,91	2756,20
724,36	2702,35
724,81	2771,10
725,26	2715,05
725,70	2745,35
726,15	2746,05
726,60	2749,65
727,05	2816,75
727,49	2722,20
727,94	2803,15
728,39	2778,00
728,84	2735,25
729,28	2790,40
729,73	2726,55
730,18	2780,80
730,63	2723,85
731,07	2748,80
731,52	2768,15
731,97	2756,15
732,41	2759,90
732,86	2727,85
733,31	2774,25
733,76	2754,70
734,20	2728,45
734,65	2771,50
735,10	2767,90
735,54	2757,40
735,99	2856,15
736,44	2729,10
736,89	2754,25
737,33	2776,75
737,78	2774,90
738,23	2751,05
738,67	2739,60
739,12	2757,25
739,57	2707,55
740,01	2787,80
740,46	2767,35
740,91	2720,00
741,35	2772,20
741,80	2776,55
742,25	2745,85
742,69	2751,20
743,14	2727,50
743,59	2722,90
744,03	2743,85
744,48	2799,25
744,92	2780,55
745,37	2771,80
745,82	2779,80
746,26	2806,70
746,71	2691,40
747,16	2723,35
747,60	2712,20
748,05	2776,80
748,49	2741,65
748,94	2730,05
749,39	2757,80
749,83	2854,45
750,28	2755,30
750,73	2741,65
751,17	2710,50
751,62	2731,05
752,06	2744,85
752,51	2745,55
752,95	2819,35
753,40	2727,95
753,85	2745,25
754,29	2708,95
754,74	2736,05
755,18	2726,35
755,63	2740,45
756,07	2748,25
756,52	2789,35
756,97	2737,35
757,41	2794,70
757,86	2753,50
758,30	2743,70
758,75	2746,60
759,19	2751,15
759,64	2719,90
760,08	2742,90
760,53	2769,30
760,98	2745,05
761,42	2770,20
761,87	2799,75
762,31	2728,50
762,76	2715,60
763,20	2741,50
763,65	2776,45
764,09	2741,90
764,54	2716,40
764,98	2735,55
765,43	2754,75
765,87	2722,25
766,32	2715,95
766,76	2731,70
767,21	2751,70
767,65	2748,35
768,10	2763,95
768,54	2768,05
768,99	2750,50
769,43	2822,90
769,88	2726,95
770,32	2748,05
770,77	2722,05
771,21	2716,80
771,65	2767,10
772,10	2753,50
772,54	2762,05
772,99	2712,75
773,43	2741,20
773,88	2740,65
774,32	2692,10
774,77	2755,65
775,21	2724,45
775,65	2755,50
776,10	2755,50
776,54	2719,15
776,99	2745,00
777,43	2739,80
777,88	2760,00
778,32	2773,20
778,76	2732,15
779,21	2753,30
779,65	2860,85
780,10	2795,15
780,54	2751,50
780,99	2790,50
781,43	2767,05
781,87	2722,75
782,32	2754,80
782,76	2719,00
783,20	2742,95
783,65	2771,00
784,09	2774,45
784,54	2742,80
784,98	2738,80
785,42	2737,75
785,87	2729,65
786,31	2773,30
786,75	2788,85
787,20	2790,20
787,64	2720,55
788,09	2725,85
788,53	2753,40
788,97	2723,45
789,42	2741,00
789,86	2730,55
790,30	2746,90
790,75	2720,05
791,19	2728,30
791,63	2791,75
792,08	2736,05
792,52	2753,00
792,96	2734,45
793,41	2902,65
793,85	2787,95
794,29	2752,25
794,74	2760,30
795,18	2748,45
795,62	2715,85
796,06	2768,70
796,51	2745,65
796,95	2747,55
797,39	2730,10
797,84	2715,60
798,28	2752,80
798,72	2792,40
799,16	2756,20
799,61	2725,00
800,05	2811,10
800,49	2764,55
800,94	2724,10
801,38	2762,10
801,82	2748,55
802,26	2721,55
802,71	2784,15
803,15	2812,45
803,59	2770,65
804,03	2756,60
804,48	2740,20
804,92	2735,05
805,36	2816,60
805,80	2831,95
806,25	2814,65
806,69	2779,65
807,13	2827,30
807,57	2745,20
808,01	2755,70
808,46	2718,70
808,90	2763,70
809,34	2753,00
809,78	2728,80
810,23	2724,05
810,67	2763,00
811,11	2797,95
811,55	2891,10
811,99	2736,80
812,44	2729,65
812,88	2775,30
813,32	2822,35
813,76	2780,25
814,20	2757,05
814,64	2788,70
815,09	2769,25
815,53	2758,65
815,97	2731,00
816,41	2725,00
816,85	2733,35
817,29	2781,40
817,74	2748,05
818,18	2789,30
818,62	2735,10
819,06	2779,60
819,50	2789,80
819,94	2741,55
820,39	2758,30
820,83	2739,45
821,27	2752,00
821,71	2728,55
822,15	2801,20
822,59	2723,70
823,03	2753,85
823,47	2758,50
823,92	2719,30
824,36	2759,85
824,80	2750,00
825,24	2758,15
825,68	2768,45
826,12	2726,20
826,56	2739,25
827,00	2695,55
827,44	2744,60
827,88	2777,40
828,33	2793,40
828,77	2729,90
829,21	2786,60
829,65	2764,45
830,09	2726,30
830,53	2811,40
830,97	2741,05
831,41	2838,60
831,85	2788,45
832,29	2767,25
832,73	2713,25
833,17	2749,35
833,61	2748,60
834,05	2807,15
834,49	2774,45
834,93	2741,75
835,37	2734,75
835,82	2788,40
836,26	2742,55
836,70	2759,50
837,14	2745,55
837,58	2792,05
838,02	2732,70
838,46	2734,35
838,90	2764,40
839,34	2746,55
839,78	2810,65
840,22	2844,55
840,66	2757,85
841,10	2800,00
841,54	2702,00
841,98	2734,20
842,42	2717,00
842,86	2735,10
843,30	2774,00
843,74	2753,10
844,18	2776,75
844,62	2748,80
845,06	2729,20
845,50	2774,15
845,94	2743,65
846,37	2782,80
846,81	2725,55
847,25	2733,65
847,69	2750,50
848,13	2727,25
848,57	2746,60
849,01	2729,50
849,45	2775,50
849,89	2800,20
850,33	2775,40
850,77	2739,90
851,21	2788,35
851,65	2724,30
852,09	2761,90
852,53	2779,65
852,97	2736,20
853,40	2738,55
853,84	2771,10
854,28	2716,30
854,72	2783,40
855,16	2717,00
855,60	2737,00
856,04	2787,55
856,48	2806,65
856,92	2753,75
857,36	2770,85
857,79	2748,50
858,23	2716,50
858,67	2790,35
859,11	2709,30
859,55	2723,25
859,99	2736,65
860,43	2746,45
860,87	2755,35
861,30	2776,15
861,74	2732,15
862,18	2747,40
862,62	2770,75
863,06	2729,75
863,50	2736,25
863,94	2781,05
864,37	2725,30
864,81	2756,00
865,25	2747,90
865,69	2711,00
866,13	2742,80
866,57	2701,50
867,00	2771,90
867,44	2726,25
867,88	2760,45
868,32	2742,30
868,76	2738,60
869,19	2767,55
869,63	2748,80
870,07	2808,50
870,51	2843,85
870,95	2715,15
871,38	2745,55
871,82	2754,05
872,26	2729,75
872,70	2756,85
873,14	2764,20
873,57	2745,70
874,01	2784,90
874,45	2779,75
874,89	2744,80
875,32	2718,80
875,76	2792,50
876,20	2695,10
876,64	2765,35
877,07	2748,75
877,51	2749,00
877,95	2752,00
878,39	2748,10
878,82	2757,10
879,26	2744,75
879,70	2810,35
880,14	2726,95
880,57	2715,80
881,01	2739,55
881,45	2748,95
881,89	2774,05
882,32	2751,00
882,76	2751,75
883,20	2738,50
883,63	2737,75
884,07	2721,60
884,51	2772,65
884,94	2752,10
885,38	2764,25
885,82	2779,45
886,26	2735,85
886,69	2732,20
887,13	2811,75
887,57	2717,25
888,00	2724,85
888,44	2744,05
888,88	2738,45
889,31	2879,75
889,75	2710,90
890,19	2775,90
890,62	2733,90
891,06	2769,20
891,50	2772,15
891,93	2709,60
892,37	2734,00
892,81	2743,75
893,24	2712,55
893,68	2735,45
894,11	2757,85
894,55	2732,00
894,99	2771,60
895,42	2739,30
895,86	2723,20
896,30	2748,50
896,73	2766,40
897,17	2730,40
897,60	2724,65
898,04	2733,75
898,48	2757,85
898,91	2789,05
899,35	2723,30
899,78	2728,15
900,22	2731,70
900,66	2778,70
901,09	2768,75
901,53	2734,55
901,96	2821,70
902,40	2826,35
902,84	2721,45
903,27	2743,20
903,71	2811,50
904,14	2729,10
904,58	2759,05
905,01	2733,25
905,45	2741,00
905,88	2721,00
906,32	2783,85
906,76	2748,70
907,19	2784,95
907,63	2763,85
908,06	2748,05
908,50	2776,65
908,93	2806,40
909,37	2737,45
909,80	2715,90
910,24	2757,70
910,67	2764,35
911,11	2739,90
911,54	2724,80
911,98	2736,00
912,41	2751,10
912,85	2743,50
913,28	2763,90
913,72	2768,95
914,15	2745,05
914,59	2716,70
915,02	2717,80
915,46	2735,90
915,89	2729,25
916,33	2778,90
916,76	2732,95
917,20	2792,25
917,63	2736,65
918,07	2777,25
918,50	2726,40
918,94	2743,20
919,37	2747,35
919,81	2768,80
920,24	2779,70
920,67	2752,90
921,11	2811,05
921,54	2771,50
921,98	2736,70
922,41	2714,40
922,85	2715,40
923,28	2756,60
923,72	2803,95
924,15	2764,90
924,58	2706,55
925,02	2773,30
925,45	2716,40
925,89	2777,35
926,32	2825,65
926,75	2742,40
927,19	2773,30
927,62	2711,65
928,06	2832,05
928,49	2746,90
928,92	2716,30
929,36	2788,90
929,79	2743,75
930,23	2757,80
930,66	2778,55
931,09	2725,90
931,53	2768,60
931,96	2708,20
932,39	2814,05
932,83	2790,90
933,26	2849,20
933,70	2743,50
934,13	2792,35
934,56	2783,90
935,00	2775,75
935,43	2754,70
935,86	2710,90
936,30	2746,30
936,73	2731,10
937,16	2761,85
937,60	2721,10
938,03	2774,35
938,46	2731,95
938,90	2740,35
939,33	2771,35
939,76	2716,90
940,19	2752,60
940,63	2790,20
941,06	2828,05
941,49	2735,70
941,93	2788,85
942,36	2724,85
942,79	2742,55
943,23	2774,95
943,66	2710,95
944,09	2712,25
944,52	2770,40
944,96	2768,50
945,39	2769,20
945,82	2748,10
946,26	2754,30
946,69	2757,85
947,12	2797,20
947,55	2758,20
947,99	2750,80
948,42	2777,90
948,85	2707,45
949,28	2716,80
949,72	2718,05
950,15	2849,50
950,58	2800,65
951,01	2735,95
951,45	2733,55
951,88	2765,40
952,31	2715,45
952,74	2779,00
953,17	2742,90
953,61	2821,95
954,04	2708,35
954,47	2732,65
954,90	2740,20
955,33	2734,45
955,77	2742,35
956,20	2766,65
956,63	2717,05
957,06	2770,85
957,49	2864,10
957,93	2717,85
958,36	2769,05
958,79	2756,80
959,22	2736,95
959,65	2733,45
960,08	2733,95
960,52	2689,00
960,95	2744,35
961,38	2767,75
961,81	2763,70
962,24	2782,95
962,67	2772,00
963,11	2725,30
963,54	2762,10
963,97	2735,80
964,40	2751,65
964,83	2746,25
965,26	2731,05
965,69	2776,75
966,13	2738,10
966,56	2742,85
966,99	2774,85
967,42	2725,75
967,85	2731,30
968,28	2793,70
968,71	2905,00
969,14	2774,45
969,57	2740,25
970,01	2767,95
970,44	2722,10
970,87	2733,30
971,30	2768,35
971,73	2734,10
972,16	2748,55
972,59	2713,75
973,02	2726,00
973,45	2738,40
973,88	2765,55
974,31	2744,75
974,74	2772,45
975,17	2760,35
975,61	2725,70
976,04	2734,95
976,47	2730,25
976,90	2755,25
977,33	2720,30
977,76	2768,50
978,19	2748,55
978,62	2746,80
979,05	2746,30
979,48	2736,80
979,91	2782,50
980,34	2768,60
980,77	2731,60
981,20	2762,50
981,63	2781,05
982,06	2745,10
982,49	2744,35
982,92	2737,80
983,35	2738,55
983,78	2724,10
984,21	2783,00
984,64	2773,05
985,07	2721,60
985,50	2699,00
985,93	2745,95
986,36	2780,20
986,79	2746,50
987,22	2728,60
987,65	2762,40
988,08	2750,05
988,51	2751,95
988,94	2744,35
989,37	2760,00
989,80	2748,70
990,23	2742,95
990,66	2758,35
991,09	2744,10
991,51	2754,15
991,94	2813,40
992,37	2730,35
992,80	2724,55
993,23	2748,95
993,66	2728,10
994,09	2735,10
994,52	2769,15
994,95	2776,70
995,38	2757,05
995,81	2756,50
996,24	2712,35
996,67	2712,70
997,09	2695,95
997,52	2787,30
997,95	2776,30
998,38	2730,55
998,81	2756,95
999,24	2720,95
999,67	2810,00
1000,10	2748,60
1000,53	2751,15
1000,95	2789,10
1001,38	2722,85
1001,81	2751,45
1002,24	2772,85
1002,67	2746,40
1003,10	2757,55
1003,53	2741,20
1003,95	2771,90
1004,38	2720,30
1004,81	2757,80
1005,24	2754,35
1005,67	2804,75
1006,10	2738,60
1006,52	2708,20
1006,95	2771,80
1007,38	2743,95
1007,81	2729,00
1008,24	2707,10
1008,67	2743,95
1009,09	2737,00
1009,52	2885,30
1009,95	2780,05
1010,38	2778,35
1010,81	2759,10
1011,23	2765,45
1011,66	2779,00
1012,09	2747,00
1012,52	2767,25
1012,95	2758,95
1013,37	2759,60
1013,80	2775,20
1014,23	2724,90
1014,66	2796,15
1015,08	2712,40
1015,51	2780,60
1015,94	2730,60
1016,37	2752,85
1016,80	2719,55
1017,22	2762,10
1017,65	2739,30
1018,08	3616,70
1018,51	2726,45
1018,93	2703,70
1019,36	2852,25
1019,79	2791,65
1020,21	2774,35
1020,64	2740,40
1021,07	2747,90
1021,50	2760,20
1021,92	2758,15
1022,35	2770,60
1022,78	2746,35
1023,21	2889,60
1023,63	2785,30
1024,06	2792,40
1024,49	2785,20
1024,91	2755,05
1025,34	2770,15
1025,77	2782,65
1026,19	2729,95
1026,62	2722,10
1027,05	2833,45
1027,47	2774,55
1027,90	2765,35
1028,33	2755,30
1028,75	2755,50
1029,18	2740,15
1029,61	2833,45
1030,03	2754,70
1030,46	2750,70
1030,89	2762,70
1031,31	2801,40
1031,74	2708,90
1032,17	2763,05
1032,59	2778,10
1033,02	2741,70
1033,45	2790,55
1033,87	2721,80
1034,30	2728,05
1034,73	2763,30
1035,15	2778,55
1035,58	2736,85
1036,00	2810,10
1036,43	2731,45
1036,86	2736,65
1037,28	2758,55
1037,71	2713,30
1038,13	2786,05
1038,56	2782,45
1038,99	2774,65
1039,41	2789,20
1039,84	2812,60
1040,26	2743,30
1040,69	2748,70
1041,11	2766,10
1041,54	2746,65
1041,97	2803,10
1042,39	2794,45
1042,82	2769,35
1043,24	2789,20
1043,67	2752,20
1044,09	2785,50
1044,52	2729,50
1044,95	2753,20
1045,37	2734,95
1045,80	2728,60
1046,22	2775,15
1046,65	2770,15
1047,07	2730,50
1047,50	2767,35
1047,92	2789,40
1048,35	2725,35
1048,77	2792,20
1049,20	2781,35
1049,62	2785,95
1050,05	2741,20
1050,47	2755,15
1050,90	2770,00
1051,32	2786,90
1051,75	2795,75
1052,17	2796,10
1052,60	2759,05
1053,02	2780,60
1053,45	2699,60
1053,87	2756,30
1054,30	2702,60
1054,72	2755,25
1055,15	2731,55
1055,57	2768,45
1056,00	2767,75
1056,42	2822,25
1056,85	2795,45
1057,27	2794,95
1057,70	2760,60
1058,12	2913,95
1058,54	2732,05
1058,97	2776,10
1059,39	2787,95
1059,82	2754,85
1060,24	2743,80
1060,67	2737,90
1061,09	2783,75
1061,51	2764,15
1061,94	2741,00
1062,36	2784,10
1062,79	2807,05
1063,21	2765,25
1063,64	2750,30
1064,06	2737,90
1064,48	2793,65
1064,91	2789,55
1065,33	2739,60
1065,76	2731,65
1066,18	2717,35
1066,60	2787,95
1067,03	2759,65
1067,45	2753,00
1067,87	2767,50
1068,30	2746,40
1068,72	2827,50
1069,15	2765,50
1069,57	2743,45
1069,99	2713,70
1070,42	2783,10
1070,84	2789,85
1071,26	2791,70
1071,69	2744,85
1072,11	2776,80
1072,53	2744,60
1072,96	2731,70
1073,38	2717,90
1073,80	2785,80
1074,23	2745,00
1074,65	2719,50
1075,07	2738,95
1075,50	2745,70
1075,92	2762,05
1076,34	2732,45
1076,77	2730,45
1077,19	2752,50
1077,61	2786,95
1078,04	2741,50
1078,46	2779,20
1078,88	2805,30
1079,30	2702,05
1079,73	2762,15
1080,15	2744,00
1080,57	2756,00
1081,00	2770,10
1081,42	2756,45
1081,84	2743,15
1082,26	2766,80
1082,69	2751,85
1083,11	2757,25
1083,53	2755,15
1083,95	2751,85
1084,38	2788,10
1084,80	2750,00
1085,22	2744,40
1085,64	2791,05
1086,07	2728,40
1086,49	2739,35
1086,91	2759,90
1087,33	2713,55
1087,76	2781,95
1088,18	3980,20
1088,60	2755,10
1089,02	2732,70
1089,45	2736,40
1089,87	2751,20
1090,29	2790,70
1090,71	2751,40
1091,13	2722,85
1091,56	2757,80
1091,98	2741,00
1092,40	2732,80
1092,82	2751,80
1093,24	2739,15
1093,66	2751,50
1094,09	2744,75
1094,51	2752,50
1094,93	2746,05
1095,35	2754,20
1095,77	2733,60
1096,19	2754,15
1096,62	2765,45
1097,04	2720,45
1097,46	2751,05
1097,88	2740,65
1098,30	2778,10
1098,72	2773,20
1099,15	2785,40
1099,57	2745,55
1099,99	2742,55
1100,41	2731,10
1100,83	2740,35
1101,25	2730,35
1101,67	2755,75
1102,09	2717,90
1102,52	2733,75
1102,94	2741,50
1103,36	2748,20
1103,78	2756,65
1104,20	2726,40
1104,62	2808,30
1105,04	2687,60
1105,46	2760,15
1105,88	2747,35
1106,30	2727,40
1106,73	2748,75
1107,15	2685,25
1107,57	2708,75
1107,99	2782,95
1108,41	2707,60
1108,83	2764,05
1109,25	2754,10
1109,67	2762,15
1110,09	2698,75
1110,51	2728,40
1110,93	2699,90
1111,35	2729,50
1111,77	2703,25
1112,19	2704,65
1112,61	2699,55
1113,03	2719,75
1113,45	2710,00
1113,87	2707,75
1114,29	2737,60
1114,71	2757,40
1115,13	2712,25
1115,55	2726,95
1115,98	2717,05
1116,40	2747,70
1116,82	2742,10
1117,24	2723,60
1117,66	2704,00
1118,08	2183,00
1118,50	2195,40
1118,91	2194,45
1119,33	2194,45
>>>>>End Processed Spectral Data<<<<<
