SpectraSuite Data File
++++++++++++++++++++++++++++++++++++
Date: Wed Feb 13 13:03:40 EET 2013
User: OO Maya
Dark Spectrum Present: No
Reference Spectrum Present: No
Number of Sampled Component Spectra: 1
Spectrometers: MAYP11278
Integration Time (usec): 6000000 (MAYP11278)
Spectra Averaged: 10 (MAYP11278)
Boxcar Smoothing: 0 (MAYP11278)
Correct for Electrical Dark: No (MAYP11278)
Strobe/Lamp Enabled: No (MAYP11278)
Correct for Detector Non-linearity: No (MAYP11278)
Correct for Stray Light: No (MAYP11278)
Number of Pixels in Processed Spectrum: 2068
>>>>>Begin Processed Spectral Data<<<<<
188,05	2289,70
188,53	2215,70
189,01	2182,60
189,49	2185,00
189,96	8518,60
190,44	9168,00
190,92	8901,00
191,40	9027,90
191,88	9522,20
192,36	9056,50
192,83	8809,30
193,31	8585,40
193,79	9082,30
194,27	8938,90
194,75	9203,50
195,23	8930,70
195,70	9474,00
196,18	8901,30
196,66	9035,70
197,14	10442,70
197,62	9130,00
198,09	8684,10
198,57	8912,50
199,05	8837,40
199,53	9246,00
200,01	9488,40
200,48	8985,00
200,96	9056,20
201,44	9491,10
201,92	9396,20
202,39	9469,00
202,87	8711,30
203,35	9330,70
203,83	8788,40
204,31	9568,90
204,78	9749,60
205,26	8890,70
205,74	8885,30
206,22	9820,50
206,69	9090,10
207,17	9316,90
207,65	10479,30
208,13	9258,80
208,60	9528,80
209,08	9070,30
209,56	9657,00
210,04	9544,60
210,51	9186,60
210,99	9185,20
211,47	9408,50
211,94	9185,80
212,42	8894,20
212,90	10138,30
213,38	9503,30
213,85	8997,30
214,33	10117,10
214,81	9425,40
215,29	9963,00
215,76	9397,40
216,24	9574,40
216,72	9605,40
217,19	9597,00
217,67	8974,10
218,15	9150,10
218,62	9792,70
219,10	8734,90
219,58	8949,50
220,05	9000,40
220,53	9280,60
221,01	9901,50
221,49	9074,30
221,96	9721,00
222,44	8972,40
222,92	9733,30
223,39	9076,40
223,87	9699,70
224,35	9235,00
224,82	9067,10
225,30	8883,20
225,78	9247,40
226,25	8971,00
226,73	9299,00
227,21	9785,00
227,68	9286,60
228,16	9488,30
228,63	9614,00
229,11	9588,80
229,59	9209,10
230,06	9191,20
230,54	9084,20
231,02	9611,10
231,49	9703,60
231,97	9363,00
232,45	9401,00
232,92	8940,10
233,40	9384,70
233,87	9423,60
234,35	11096,20
234,83	9491,60
235,30	9050,40
235,78	8954,00
236,25	8760,10
236,73	9700,50
237,21	10418,40
237,68	9120,10
238,16	9399,70
238,63	9503,20
239,11	9431,80
239,59	9260,10
240,06	8807,60
240,54	9650,90
241,01	9917,00
241,49	9410,00
241,96	9293,70
242,44	9748,40
242,92	9897,90
243,39	8875,90
243,87	8956,60
244,34	9726,60
244,82	10036,20
245,29	9319,60
245,77	9921,90
246,24	9877,50
246,72	9089,10
247,20	9360,70
247,67	9423,70
248,15	9554,60
248,62	9552,80
249,10	8672,30
249,57	9395,90
250,05	9726,00
250,52	9526,90
251,00	10063,80
251,47	9373,90
251,95	10331,80
252,42	10066,80
252,90	9117,20
253,37	9959,40
253,85	9463,50
254,32	9235,10
254,80	9487,20
255,27	9545,80
255,75	9847,10
256,22	9084,30
256,70	9539,30
257,17	9687,00
257,65	9963,10
258,12	10898,20
258,60	9416,20
259,07	9170,40
259,55	9477,90
260,02	9707,00
260,50	10197,40
260,97	9323,70
261,45	9113,10
261,92	9879,70
262,40	9041,70
262,87	9551,40
263,35	9325,30
263,82	8864,70
264,30	9732,90
264,77	9961,40
265,25	9219,10
265,72	9486,60
266,19	9609,80
266,67	9773,80
267,14	9301,60
267,62	9353,70
268,09	9464,00
268,57	9574,40
269,04	8767,00
269,51	9067,20
269,99	9142,00
270,46	9713,10
270,94	9892,80
271,41	9318,50
271,89	9437,40
272,36	8838,50
272,83	8904,20
273,31	8574,40
273,78	9402,60
274,26	11145,10
274,73	9665,50
275,20	9759,90
275,68	9133,40
276,15	9343,10
276,63	9581,80
277,10	9780,70
277,57	8958,40
278,05	9340,60
278,52	8952,30
279,00	11537,10
279,47	9261,30
279,94	9174,20
280,42	11403,30
280,89	9859,80
281,36	10986,80
281,84	9157,90
282,31	9985,10
282,78	9250,10
283,26	9324,20
283,73	9716,70
284,21	9053,80
284,68	8968,70
285,15	9821,90
285,63	9361,60
286,10	9498,10
286,57	9607,50
287,05	8813,50
287,52	9612,00
287,99	10107,90
288,47	9244,30
288,94	9796,30
289,41	8587,30
289,89	10121,40
290,36	9101,00
290,83	9625,70
291,30	9140,70
291,78	9625,40
292,25	10515,90
292,72	9154,50
293,20	9978,70
293,67	9238,60
294,14	9679,60
294,62	9662,00
295,09	9080,20
295,56	9500,40
296,03	9552,30
296,51	10342,10
296,98	10277,10
297,45	9775,80
297,93	9669,60
298,40	9621,40
298,87	9276,90
299,34	10178,50
299,82	9331,90
300,29	9693,60
300,76	9211,80
301,23	9881,60
301,71	9919,50
302,18	9859,50
302,65	9021,80
303,12	9805,80
303,60	9915,10
304,07	9098,00
304,54	9194,00
305,01	9058,70
305,49	9569,80
305,96	9653,00
306,43	9626,90
306,90	9779,60
307,38	9282,40
307,85	9237,80
308,32	9632,30
308,79	9251,50
309,27	9955,80
309,74	9889,40
310,21	9703,20
310,68	9549,70
311,15	9695,10
311,63	9196,20
312,10	9939,10
312,57	9469,20
313,04	10411,20
313,51	9206,70
313,99	9300,90
314,46	9613,60
314,93	9235,30
315,40	9176,40
315,87	9892,40
316,34	9780,90
316,82	9545,80
317,29	9804,30
317,76	9527,80
318,23	10873,70
318,70	9491,50
319,17	9427,70
319,65	8863,30
320,12	9714,40
320,59	10392,00
321,06	9830,10
321,53	9334,10
322,00	8714,20
322,48	9023,40
322,95	10309,20
323,42	9360,20
323,89	10689,20
324,36	8875,00
324,83	9629,30
325,30	9350,00
325,78	9239,40
326,25	9355,40
326,72	9301,60
327,19	9693,70
327,66	9666,30
328,13	9717,60
328,60	9486,10
329,07	9393,10
329,54	9309,10
330,02	9276,10
330,49	9089,60
330,96	9854,20
331,43	9710,10
331,90	10347,50
332,37	9171,10
332,84	10560,90
333,31	9830,70
333,78	9712,20
334,25	10152,40
334,72	9547,00
335,20	9748,40
335,67	11375,80
336,14	9001,40
336,61	9462,30
337,08	9345,30
337,55	9653,00
338,02	9314,70
338,49	9314,10
338,96	10303,40
339,43	9967,50
339,90	8964,40
340,37	9152,10
340,84	9084,10
341,31	9704,30
341,78	9967,60
342,25	9265,10
342,72	9613,00
343,19	9863,20
343,67	9578,20
344,14	9321,30
344,61	9500,90
345,08	9089,80
345,55	9507,40
346,02	9735,40
346,49	9289,50
346,96	9109,80
347,43	10294,20
347,90	9235,40
348,37	9987,30
348,84	9587,80
349,31	8865,00
349,78	9492,80
350,25	9852,20
350,72	9481,30
351,19	9057,40
351,66	9585,80
352,13	10407,20
352,60	9543,70
353,07	9370,70
353,54	9555,10
354,01	9700,40
354,48	9564,30
354,94	9870,00
355,41	9627,50
355,88	10275,80
356,35	9217,80
356,82	10267,50
357,29	9089,70
357,76	10610,80
358,23	9843,50
358,70	8883,30
359,17	9103,70
359,64	9236,50
360,11	9298,00
360,58	9878,60
361,05	10231,10
361,52	9403,50
361,99	9409,20
362,46	9383,60
362,93	9406,10
363,39	9434,70
363,86	10655,90
364,33	9763,90
364,80	9177,60
365,27	9755,00
365,74	9239,50
366,21	8949,90
366,68	9608,00
367,15	9454,50
367,62	9490,90
368,09	8820,40
368,55	8997,10
369,02	9864,50
369,49	8967,90
369,96	9868,50
370,43	9635,90
370,90	9260,80
371,37	9183,20
371,84	9635,30
372,31	9152,70
372,77	8820,40
373,24	9217,00
373,71	9484,90
374,18	8905,50
374,65	9104,60
375,12	9647,40
375,59	8759,10
376,05	10152,70
376,52	9290,10
376,99	8965,80
377,46	8892,70
377,93	9578,30
378,40	9528,00
378,86	9470,20
379,33	9457,10
379,80	9411,00
380,27	9772,80
380,74	10238,30
381,21	9435,10
381,67	10191,80
382,14	10156,40
382,61	8879,50
383,08	9628,40
383,55	9309,30
384,02	10046,60
384,48	9471,20
384,95	12247,10
385,42	9590,90
385,89	9343,20
386,36	9431,20
386,82	10465,90
387,29	9234,10
387,76	9115,10
388,23	10124,70
388,69	9984,80
389,16	10444,90
389,63	9643,50
390,10	10297,60
390,57	10302,50
391,03	10670,50
391,50	10696,70
391,97	10857,20
392,44	11106,60
392,90	11082,50
393,37	11272,30
393,84	12750,70
394,31	11806,50
394,77	12650,30
395,24	11954,10
395,71	12904,80
396,18	15362,70
396,64	12660,40
397,11	13847,80
397,58	14379,30
398,05	13908,70
398,51	14754,30
398,98	14708,50
399,45	14598,30
399,92	15749,80
400,38	14785,90
400,85	15477,30
401,32	15654,60
401,78	16128,80
402,25	16171,90
402,72	16279,20
403,18	16146,00
403,65	17350,40
404,12	16797,10
404,59	17728,60
405,05	18237,20
405,52	18161,40
405,99	17189,00
406,45	17782,50
406,92	17692,70
407,39	18554,80
407,85	17552,10
408,32	17865,50
408,79	18423,20
409,25	17600,10
409,72	18636,00
410,19	17717,80
410,65	18612,30
411,12	17643,50
411,59	18661,70
412,05	19091,80
412,52	17530,30
412,99	18709,60
413,45	18201,50
413,92	18766,70
414,39	18772,10
414,85	19206,90
415,32	18338,40
415,78	19201,40
416,25	18594,90
416,72	18634,40
417,18	19375,30
417,65	18707,70
418,12	18436,80
418,58	18685,30
419,05	18819,10
419,51	19331,20
419,98	18726,90
420,45	19858,40
420,91	19190,00
421,38	19903,80
421,84	19991,30
422,31	20198,50
422,78	19355,70
423,24	19315,50
423,71	19584,60
424,17	19792,50
424,64	19371,80
425,11	19766,20
425,57	19270,10
426,04	19571,80
426,50	18648,60
426,97	19554,90
427,43	19433,20
427,90	19750,90
428,37	18931,00
428,83	20329,30
429,30	20450,70
429,76	20881,20
430,23	21157,90
430,69	22259,40
431,16	19546,00
431,62	19331,10
432,09	19798,90
432,55	19557,00
433,02	19404,30
433,48	19225,00
433,95	20431,10
434,42	19780,70
434,88	19599,70
435,35	18990,40
435,81	19800,20
436,28	19325,30
436,74	19099,80
437,21	19789,70
437,67	19381,10
438,14	19361,10
438,60	19278,80
439,07	19349,40
439,53	21410,90
440,00	19635,30
440,46	20137,50
440,93	20683,70
441,39	20423,00
441,86	20816,70
442,32	21879,40
442,79	20141,20
443,25	20791,20
443,72	20990,70
444,18	20220,10
444,64	21196,30
445,11	20651,50
445,57	20402,00
446,04	20217,40
446,50	20647,90
446,97	20220,40
447,43	20043,40
447,90	19619,50
448,36	19491,40
448,83	20112,30
449,29	20191,50
449,75	19748,80
450,22	19352,00
450,68	19144,10
451,15	19156,90
451,61	19320,40
452,08	19691,10
452,54	18695,30
453,00	19470,00
453,47	18560,60
453,93	18450,50
454,40	18698,60
454,86	19008,10
455,32	18777,50
455,79	19012,20
456,25	19144,30
456,72	18395,40
457,18	19543,50
457,64	18950,60
458,11	19161,40
458,57	18577,40
459,04	19301,90
459,50	19031,00
459,96	19427,60
460,43	18842,90
460,89	18462,60
461,36	19459,80
461,82	18715,60
462,28	17420,60
462,75	17508,10
463,21	18677,60
463,67	18467,80
464,14	18796,80
464,60	19023,20
465,06	18987,80
465,53	19069,30
465,99	19848,30
466,45	18735,70
466,92	18296,80
467,38	18050,20
467,84	17557,50
468,31	17775,00
468,77	17527,60
469,23	16957,20
469,70	16594,00
470,16	16858,60
470,62	16761,30
471,09	16511,60
471,55	16629,70
472,01	16565,40
472,48	16923,90
472,94	17097,00
473,40	18009,30
473,87	17396,80
474,33	17267,40
474,79	17583,30
475,25	17417,30
475,72	17925,70
476,18	17332,10
476,64	17509,00
477,11	17189,30
477,57	17371,40
478,03	18307,10
478,49	17813,40
478,96	17966,90
479,42	17310,60
479,88	18709,50
480,35	18299,40
480,81	18150,50
481,27	17599,50
481,73	18040,10
482,20	18020,50
482,66	17041,90
483,12	17328,70
483,58	17249,60
484,05	18284,40
484,51	20851,30
484,97	24889,50
485,43	29921,40
485,89	33441,30
486,36	31957,90
486,82	20852,30
487,28	19494,20
487,74	17786,90
488,21	16870,40
488,67	16792,60
489,13	17172,80
489,59	16800,50
490,05	17184,30
490,52	16159,60
490,98	16847,30
491,44	16384,60
491,90	16369,80
492,36	16009,40
492,83	17183,70
493,29	16808,50
493,75	16901,30
494,21	16396,80
494,67	16686,00
495,14	16439,40
495,60	16538,50
496,06	17275,50
496,52	17243,50
496,98	16769,80
497,44	17088,70
497,91	16719,70
498,37	15955,30
498,83	16711,40
499,29	16618,80
499,75	18161,90
500,21	16781,20
500,67	16353,90
501,14	16809,40
501,60	16897,90
502,06	17271,60
502,52	17019,10
502,98	16845,20
503,44	16749,90
503,90	16806,80
504,37	16060,80
504,83	16512,60
505,29	16499,00
505,75	16058,20
506,21	16374,20
506,67	16805,90
507,13	15991,40
507,59	16187,50
508,05	16391,30
508,51	15813,60
508,98	15539,00
509,44	15200,60
509,90	15588,80
510,36	15727,30
510,82	15412,70
511,28	16111,10
511,74	16004,90
512,20	14843,40
512,66	14644,10
513,12	14938,10
513,58	15422,10
514,04	14325,80
514,51	15434,20
514,97	15737,20
515,43	14167,50
515,89	15035,70
516,35	15632,80
516,81	15448,10
517,27	16066,90
517,73	14727,30
518,19	14614,30
518,65	16566,00
519,11	14786,90
519,57	14395,80
520,03	13840,70
520,49	13859,90
520,95	14353,10
521,41	14623,90
521,87	14675,20
522,33	14287,70
522,79	13905,00
523,25	15387,20
523,71	15053,50
524,17	14374,40
524,63	15192,00
525,09	14601,60
525,55	14520,00
526,01	14988,50
526,47	14472,00
526,93	14371,90
527,39	14166,90
527,85	14226,70
528,31	15013,20
528,77	15321,30
529,23	14835,60
529,69	14246,10
530,15	14820,10
530,61	14745,00
531,07	13784,50
531,53	15033,20
531,99	14563,10
532,45	14724,30
532,91	15130,60
533,37	15699,90
533,83	15386,60
534,29	15008,20
534,75	15401,10
535,21	15130,30
535,67	15236,60
536,12	14583,30
536,58	14896,90
537,04	14268,20
537,50	15337,10
537,96	15348,10
538,42	15533,80
538,88	16417,10
539,34	15804,80
539,80	18234,60
540,26	14643,60
540,72	16289,50
541,18	15663,20
541,63	15148,50
542,09	15787,00
542,55	15803,90
543,01	15474,40
543,47	17182,10
543,93	15428,90
544,39	16947,90
544,85	16241,60
545,31	15470,60
545,76	15091,90
546,22	15644,00
546,68	15392,90
547,14	16103,00
547,60	16736,20
548,06	16716,10
548,52	15932,60
548,98	15118,40
549,43	14521,90
549,89	16237,30
550,35	14947,90
550,81	14438,00
551,27	15208,80
551,73	15935,90
552,19	17360,30
552,64	16083,80
553,10	15303,70
553,56	15774,20
554,02	15201,20
554,48	14694,40
554,93	15627,80
555,39	16131,60
555,85	17021,10
556,31	15848,30
556,77	15900,10
557,23	14499,90
557,68	15411,80
558,14	16279,80
558,60	14558,00
559,06	14740,90
559,52	14981,20
559,97	15863,20
560,43	16477,20
560,89	16941,70
561,35	16478,40
561,81	15927,50
562,26	15548,70
562,72	15754,90
563,18	16530,80
563,64	17352,90
564,09	16480,90
564,55	17051,10
565,01	16839,30
565,47	16930,00
565,92	17285,00
566,38	18186,80
566,84	18224,30
567,30	19166,80
567,75	20083,20
568,21	21357,00
568,67	22245,10
569,13	24480,30
569,58	27156,10
570,04	28044,90
570,50	28627,00
570,96	30357,20
571,41	31157,10
571,87	30384,00
572,33	28608,40
572,78	28858,10
573,24	32459,00
573,70	35054,90
574,16	36620,40
574,61	37196,20
575,07	34502,80
575,53	30732,60
575,98	31797,50
576,44	34968,30
576,90	39300,00
577,36	43028,00
577,81	46495,90
578,27	41108,00
578,73	35138,50
579,18	32439,10
579,64	34083,60
580,10	36479,20
580,55	39383,50
581,01	47179,30
581,47	55058,10
581,92	51860,00
582,38	44047,00
582,84	35458,10
583,29	30871,20
583,75	30681,70
584,21	33683,80
584,66	39191,50
585,12	42893,30
585,57	42336,40
586,03	35793,60
586,49	33489,60
586,94	36965,10
587,40	38405,90
587,86	35089,60
588,31	31320,20
588,77	30087,30
589,22	27552,60
589,68	27923,60
590,14	28300,40
590,59	26405,50
591,05	24671,10
591,51	24933,20
591,96	27555,30
592,42	32581,00
592,87	38421,20
593,33	36223,40
593,78	32261,60
594,24	27657,80
594,70	28351,40
595,15	31000,00
595,61	28518,20
596,06	25248,50
596,52	25110,70
596,98	26265,60
597,43	27333,80
597,89	26013,60
598,34	27946,90
598,80	33927,60
599,25	33697,20
599,71	31303,70
600,16	32257,90
600,62	31070,20
601,08	30125,30
601,53	28278,50
601,99	26849,40
602,44	30247,20
602,90	29840,70
603,35	31002,50
603,81	28610,30
604,26	26336,90
604,72	26342,20
605,17	26999,70
605,63	30727,40
606,08	30129,80
606,54	26454,10
606,99	27727,50
607,45	28197,90
607,90	26572,90
608,36	26123,10
608,81	25885,90
609,27	25969,20
609,72	27428,70
610,18	28342,60
610,63	25116,50
611,09	24590,30
611,54	24153,90
612,00	24905,50
612,45	23811,90
612,91	24461,70
613,36	25522,50
613,82	23179,00
614,27	23536,70
614,73	24354,70
615,18	25248,20
615,64	25037,90
616,09	22856,30
616,54	21854,80
617,00	22253,50
617,45	23207,40
617,91	23710,60
618,36	21142,70
618,82	19483,50
619,27	19468,30
619,72	21052,90
620,18	21240,40
620,63	18919,30
621,09	17178,10
621,54	18511,00
622,00	20461,60
622,45	20466,30
622,90	21162,50
623,36	20794,40
623,81	19487,00
624,27	21094,20
624,72	20479,30
625,17	19345,30
625,63	18833,30
626,08	17368,60
626,54	17635,80
626,99	18278,30
627,44	17872,90
627,90	17013,10
628,35	15905,60
628,81	15918,30
629,26	17497,80
629,71	16927,60
630,17	16230,20
630,62	16875,10
631,07	15739,20
631,53	16315,60
631,98	15982,40
632,43	15348,10
632,89	14266,10
633,34	14577,80
633,79	14952,10
634,25	14644,90
634,70	13881,30
635,15	14118,90
635,61	14390,80
636,06	14804,40
636,51	15791,80
636,97	14795,40
637,42	13869,80
637,87	14465,50
638,33	15029,30
638,78	14882,00
639,23	14422,90
639,69	13647,90
640,14	13326,60
640,59	14187,70
641,05	14372,30
641,50	13141,50
641,95	13501,50
642,40	13186,70
642,86	12700,20
643,31	13508,80
643,76	13754,70
644,22	12874,90
644,67	12922,70
645,12	13200,00
645,57	12963,30
646,03	13247,50
646,48	12886,70
646,93	13036,10
647,38	13474,50
647,84	14137,70
648,29	15491,90
648,74	14929,30
649,19	16060,00
649,65	14975,80
650,10	16095,10
650,55	13055,40
651,00	13406,00
651,46	14079,20
651,91	15274,40
652,36	15236,00
652,81	16008,50
653,27	16180,50
653,72	16266,00
654,17	17654,40
654,62	22853,70
655,07	45958,00
655,53	64000,00
655,98	64000,00
656,43	64000,00
656,88	64000,00
657,33	35718,00
657,79	24313,20
658,24	19195,00
658,69	16971,50
659,14	14964,60
659,59	16544,60
660,05	13259,70
660,50	13657,10
660,95	12703,10
661,40	12458,80
661,85	12801,80
662,30	12596,10
662,76	12114,40
663,21	12806,70
663,66	12456,20
664,11	12776,10
664,56	13040,40
665,01	12723,70
665,47	13622,10
665,92	12520,60
666,37	12572,80
666,82	12226,30
667,27	13577,30
667,72	13229,70
668,17	12205,20
668,62	12605,60
669,08	12136,00
669,53	13915,40
669,98	11973,30
670,43	12478,60
670,88	13412,70
671,33	14086,70
671,78	17016,70
672,23	18071,20
672,69	16131,00
673,14	14088,60
673,59	13796,60
674,04	15254,80
674,49	13333,30
674,94	12893,20
675,39	12554,70
675,84	12954,90
676,29	13418,70
676,74	13092,10
677,19	13018,40
677,64	14393,30
678,10	16728,00
678,55	14486,50
679,00	14717,50
679,45	15903,20
679,90	15973,80
680,35	15411,70
680,80	14654,70
681,25	13765,60
681,70	14560,00
682,15	14266,20
682,60	13416,30
683,05	13783,90
683,50	15202,70
683,95	15829,00
684,40	16897,80
684,85	16898,30
685,30	17461,00
685,75	17790,50
686,20	16349,60
686,65	15227,20
687,10	16056,90
687,55	16015,60
688,00	15000,10
688,45	13985,90
688,90	15690,00
689,35	15337,10
689,80	14300,10
690,25	14211,90
690,70	14625,90
691,15	15767,10
691,60	16644,70
692,05	15107,60
692,50	15378,20
692,95	15335,80
693,40	16133,70
693,85	15039,60
694,30	13795,70
694,75	13926,70
695,20	17581,80
695,65	14772,70
696,10	13605,70
696,55	15170,70
697,00	17247,60
697,45	17797,30
697,90	16566,60
698,35	15027,00
698,80	15634,20
699,24	15267,30
699,69	14019,70
700,14	13598,80
700,59	13925,40
701,04	14121,20
701,49	15833,10
701,94	13795,70
702,39	15725,10
702,84	14862,00
703,29	14372,80
703,74	14238,70
704,19	13919,00
704,63	13876,50
705,08	14044,80
705,53	13715,50
705,98	14162,30
706,43	14946,60
706,88	18009,80
707,33	18787,70
707,78	17880,80
708,22	16999,00
708,67	16563,20
709,12	15434,70
709,57	14811,40
710,02	15525,20
710,47	16076,10
710,92	15797,20
711,37	15751,50
711,81	15005,00
712,26	14572,60
712,71	14396,90
713,16	16485,80
713,61	16418,60
714,06	17344,70
714,50	17797,30
714,95	16694,40
715,40	15498,10
715,85	15002,40
716,30	13913,00
716,75	13542,70
717,19	13263,50
717,64	13364,60
718,09	15207,70
718,54	16242,20
718,99	14899,60
719,43	15001,10
719,88	15133,10
720,33	14701,30
720,78	14948,60
721,23	15558,20
721,67	15007,20
722,12	15252,70
722,57	14602,30
723,02	13937,50
723,47	13973,40
723,91	14987,90
724,36	14109,10
724,81	15062,80
725,26	15260,70
725,70	16331,10
726,15	16130,60
726,60	16069,90
727,05	16533,30
727,49	14764,40
727,94	16234,60
728,39	16320,10
728,84	15794,60
729,28	16841,80
729,73	16776,30
730,18	17710,80
730,63	17707,90
731,07	19405,70
731,52	19538,70
731,97	18462,40
732,41	17624,30
732,86	17688,40
733,31	18884,30
733,76	19576,50
734,20	20813,20
734,65	21109,80
735,10	18991,50
735,54	18069,50
735,99	20065,70
736,44	18424,00
736,89	18912,90
737,33	18777,00
737,78	17437,20
738,23	16397,20
738,67	17080,60
739,12	19429,20
739,57	19380,80
740,01	18416,40
740,46	15963,60
740,91	14654,10
741,35	14835,40
741,80	15000,30
742,25	15592,70
742,69	16350,10
743,14	15297,80
743,59	14413,70
744,03	14584,70
744,48	15536,30
744,92	15933,80
745,37	15458,90
745,82	15730,30
746,26	15908,30
746,71	14012,80
747,16	15002,30
747,60	14918,00
748,05	14752,70
748,49	14110,00
748,94	14887,60
749,39	17027,50
749,83	19854,30
750,28	18868,60
750,73	17982,60
751,17	16867,70
751,62	17495,10
752,06	17443,80
752,51	16557,60
752,95	17068,60
753,40	16754,80
753,85	17837,30
754,29	17268,00
754,74	17270,70
755,18	17851,30
755,63	19017,30
756,07	19415,60
756,52	21042,80
756,97	21502,80
757,41	24198,00
757,86	23995,60
758,30	21869,20
758,75	19407,40
759,19	20291,00
759,64	22427,20
760,08	24063,10
760,53	24138,20
760,98	23248,70
761,42	21003,80
761,87	19125,30
762,31	17189,00
762,76	17080,70
763,20	18521,20
763,65	19947,60
764,09	21051,50
764,54	22550,30
764,98	24336,40
765,43	23092,80
765,87	19777,70
766,32	17479,70
766,76	16061,40
767,21	15691,50
767,65	16321,60
768,10	18176,00
768,54	20512,30
768,99	20292,60
769,43	20176,80
769,88	17596,10
770,32	18864,00
770,77	20277,30
771,21	20490,80
771,65	19720,50
772,10	17622,10
772,54	17292,40
772,99	16954,30
773,43	17108,70
773,88	16274,10
774,32	15122,40
774,77	15553,50
775,21	14880,80
775,65	15079,10
776,10	14673,50
776,54	14319,20
776,99	15049,10
777,43	14996,10
777,88	15614,60
778,32	16554,80
778,76	17221,10
779,21	18254,00
779,65	18869,80
780,10	16708,50
780,54	16199,20
780,99	19351,10
781,43	21160,00
781,87	20263,30
782,32	18787,40
782,76	17280,10
783,20	17905,00
783,65	18241,60
784,09	18119,40
784,54	15835,30
784,98	15725,80
785,42	16780,80
785,87	17313,50
786,31	17352,70
786,75	17579,70
787,20	18530,10
787,64	18609,70
788,09	19136,60
788,53	19028,30
788,97	17828,60
789,42	17075,20
789,86	15263,10
790,30	15051,90
790,75	14362,90
791,19	14732,70
791,63	15718,30
792,08	15000,30
792,52	14714,00
792,96	14726,20
793,41	18965,70
793,85	19875,70
794,29	21064,50
794,74	21127,30
795,18	18588,00
795,62	16837,40
796,06	15114,70
796,51	13307,10
796,95	13875,30
797,39	14964,40
797,84	15491,20
798,28	15547,40
798,72	15510,30
799,16	15150,20
799,61	14484,00
800,05	15257,90
800,49	14225,50
800,94	13666,80
801,38	13935,50
801,82	13482,60
802,26	12854,90
802,71	14020,80
803,15	15572,30
803,59	15181,30
804,03	14818,50
804,48	13896,70
804,92	13910,80
805,36	15956,20
805,80	17779,80
806,25	18992,40
806,69	18588,30
807,13	17975,20
807,57	15327,30
808,01	15632,60
808,46	15640,60
808,90	15934,50
809,34	15373,80
809,78	14020,10
810,23	13859,60
810,67	14642,70
811,11	15116,80
811,55	15848,20
811,99	13152,50
812,44	12557,10
812,88	13820,30
813,32	16029,40
813,76	16863,20
814,20	16902,30
814,64	15435,10
815,09	13805,80
815,53	12947,50
815,97	12632,80
816,41	13241,50
816,85	13845,30
817,29	14987,20
817,74	14163,20
818,18	14051,80
818,62	12932,30
819,06	13204,80
819,50	13583,30
819,94	13648,90
820,39	15020,80
820,83	15684,20
821,27	15500,20
821,71	13961,00
822,15	13924,70
822,59	12557,40
823,03	13119,80
823,47	13197,70
823,92	12570,80
824,36	13018,50
824,80	13343,40
825,24	14341,50
825,68	14280,50
826,12	14225,50
826,56	13639,80
827,00	13034,40
827,44	14253,20
827,88	14589,10
828,33	14423,00
828,77	13441,40
829,21	14144,90
829,65	14323,60
830,09	12605,00
830,53	13210,20
830,97	11554,60
831,41	12802,80
831,85	12042,80
832,29	12534,60
832,73	12174,00
833,17	13377,50
833,61	13744,10
834,05	14219,50
834,49	13829,00
834,93	13247,30
835,37	12393,10
835,82	12827,80
836,26	12031,00
836,70	11915,40
837,14	11127,10
837,58	11863,80
838,02	11162,70
838,46	11435,20
838,90	12127,50
839,34	12428,60
839,78	13477,20
840,22	14147,80
840,66	12135,90
841,10	12823,20
841,54	10997,00
841,98	11073,00
842,42	10807,20
842,86	11070,10
843,30	11766,50
843,74	11427,50
844,18	11853,40
844,62	11418,40
845,06	11087,80
845,50	11646,10
845,94	11435,20
846,37	11744,90
846,81	11070,60
847,25	11503,10
847,69	11848,10
848,13	11786,00
848,57	11345,20
849,01	11096,80
849,45	11486,60
849,89	12024,20
850,33	11584,20
850,77	11088,70
851,21	12046,00
851,65	11513,40
852,09	12805,80
852,53	14995,50
852,97	15199,30
853,40	16288,80
853,84	17375,90
854,28	15212,00
854,72	14799,00
855,16	13910,10
855,60	13355,60
856,04	13905,50
856,48	14712,60
856,92	13703,50
857,36	13512,30
857,79	12591,50
858,23	11945,90
858,67	13218,00
859,11	11262,10
859,55	11768,70
859,99	12092,50
860,43	11825,90
860,87	12294,10
861,30	12522,60
861,74	11643,30
862,18	12274,90
862,62	12717,20
863,06	12637,90
863,50	12477,60
863,94	13794,90
864,37	11858,90
864,81	11619,40
865,25	11449,70
865,69	10867,20
866,13	11774,50
866,57	11397,90
867,00	12756,50
867,44	12553,60
867,88	12592,70
868,32	12086,50
868,76	11477,30
869,19	11761,80
869,63	11588,10
870,07	12954,90
870,51	14293,20
870,95	12041,70
871,38	13218,20
871,82	12103,60
872,26	11192,40
872,70	11755,70
873,14	11852,30
873,57	11971,90
874,01	12687,50
874,45	13062,80
874,89	12940,30
875,32	12747,70
875,76	14031,90
876,20	12281,40
876,64	12480,00
877,07	12700,30
877,51	13392,30
877,95	13614,50
878,39	14254,40
878,82	14509,40
879,26	13259,80
879,70	14888,10
880,14	13683,10
880,57	13863,80
881,01	13873,50
881,45	13237,90
881,89	12870,30
882,32	12078,30
882,76	12271,90
883,20	12322,10
883,63	12765,30
884,07	12190,40
884,51	12671,00
884,94	12805,30
885,38	13293,90
885,82	13530,20
886,26	13249,60
886,69	12245,90
887,13	12737,10
887,57	11329,10
888,00	11630,00
888,44	12140,90
888,88	12384,10
889,31	13911,30
889,75	11430,30
890,19	12445,40
890,62	11816,10
891,06	13134,80
891,50	13216,80
891,93	13027,30
892,37	13601,90
892,81	12613,20
893,24	11907,80
893,68	11857,00
894,11	12122,00
894,55	11654,90
894,99	12510,30
895,42	12409,40
895,86	12099,70
896,30	13221,70
896,73	13382,30
897,17	12253,10
897,60	12250,70
898,04	12250,40
898,48	12923,90
898,91	13308,30
899,35	12105,00
899,78	12099,20
900,22	12024,50
900,66	12734,40
901,09	13346,00
901,53	12447,90
901,96	13306,20
902,40	13363,60
902,84	11513,90
903,27	11773,80
903,71	13274,50
904,14	12435,50
904,58	13848,00
905,01	13534,00
905,45	13461,30
905,88	12819,50
906,32	13781,80
906,76	12386,50
907,19	12513,30
907,63	12057,90
908,06	11869,90
908,50	12226,00
908,93	12604,60
909,37	11580,70
909,80	11250,20
910,24	11912,20
910,67	12195,20
911,11	11907,30
911,54	12087,00
911,98	12445,60
912,41	12453,70
912,85	12341,50
913,28	12526,30
913,72	12150,00
914,15	11778,20
914,59	11533,50
915,02	11626,70
915,46	12037,40
915,89	11912,20
916,33	12629,10
916,76	12469,20
917,20	13070,10
917,63	12322,40
918,07	13164,60
918,50	11908,30
918,94	11878,10
919,37	12204,50
919,81	12713,50
920,24	12751,70
920,67	12660,90
921,11	13306,60
921,54	12454,50
921,98	12087,70
922,41	11784,00
922,85	12237,30
923,28	12981,00
923,72	13116,00
924,15	12528,10
924,58	11635,00
925,02	12074,40
925,45	11367,70
925,89	12121,40
926,32	12976,20
926,75	11741,40
927,19	12135,30
927,62	11676,90
928,06	13319,70
928,49	11982,50
928,92	11547,00
929,36	12300,60
929,79	11597,60
930,23	12257,10
930,66	12318,40
931,09	11889,80
931,53	12677,30
931,96	11329,40
932,39	12742,30
932,83	12584,10
933,26	13457,40
933,70	11497,20
934,13	12425,10
934,56	12158,00
935,00	11597,60
935,43	11230,80
935,86	10572,70
936,30	11036,10
936,73	10764,10
937,16	11494,90
937,60	10968,20
938,03	11800,70
938,46	11184,40
938,90	11255,10
939,33	11676,80
939,76	10938,00
940,19	10989,80
940,63	11335,10
941,06	12072,80
941,49	10629,50
941,93	11342,00
942,36	10563,10
942,79	10531,70
943,23	11086,60
943,66	10229,50
944,09	10315,00
944,52	11311,50
944,96	10732,40
945,39	11326,70
945,82	10942,20
946,26	11086,00
946,69	11134,90
947,12	11635,10
947,55	10769,70
947,99	10976,40
948,42	11342,20
948,85	10459,20
949,28	10579,80
949,72	10840,20
950,15	12554,10
950,58	11775,20
951,01	10928,00
951,45	10995,50
951,88	11784,80
952,31	10958,70
952,74	11976,40
953,17	11467,90
953,61	12466,30
954,04	10741,60
954,47	10932,70
954,90	10856,50
955,33	10742,20
955,77	11042,70
956,20	11343,70
956,63	10557,40
957,06	11158,70
957,49	12537,90
957,93	10497,80
958,36	11314,30
958,79	11059,20
959,22	10837,20
959,65	10833,80
960,08	10697,90
960,52	10201,70
960,95	10736,10
961,38	11254,90
961,81	11324,30
962,24	11542,30
962,67	11424,50
963,11	10812,50
963,54	11301,50
963,97	11050,10
964,40	11341,60
964,83	11365,90
965,26	11039,60
965,69	11824,00
966,13	11010,50
966,56	11169,30
966,99	11557,20
967,42	10834,00
967,85	10797,00
968,28	11664,80
968,71	13406,40
969,14	11486,90
969,57	11026,20
970,01	11282,90
970,44	10658,80
970,87	10814,20
971,30	11267,70
971,73	10864,70
972,16	11187,20
972,59	10642,50
973,02	10972,40
973,45	11138,10
973,88	11579,20
974,31	11252,60
974,74	11728,90
975,17	11318,50
975,61	10867,50
976,04	10879,30
976,47	10794,60
976,90	11257,90
977,33	10708,10
977,76	11518,30
978,19	11250,90
978,62	11017,50
979,05	10905,10
979,48	10829,20
979,91	11463,80
980,34	11345,60
980,77	10772,60
981,20	11220,20
981,63	11601,10
982,06	11070,90
982,49	11062,50
982,92	10926,60
983,35	10969,70
983,78	10783,20
984,21	11678,70
984,64	11340,20
985,07	10521,60
985,50	10225,00
985,93	10880,50
986,36	11246,30
986,79	10710,90
987,22	10586,30
987,65	11113,60
988,08	10859,60
988,51	10855,60
988,94	10834,10
989,37	11019,90
989,80	10871,50
990,23	10751,20
990,66	11115,00
991,09	10974,40
991,51	11175,30
991,94	12014,80
992,37	10942,30
992,80	10783,60
993,23	11142,50
993,66	10786,70
994,09	10945,10
994,52	11325,60
994,95	11335,10
995,38	11076,90
995,81	11002,20
996,24	10343,10
996,67	10449,60
997,09	10141,20
997,52	11521,20
997,95	11315,20
998,38	10661,60
998,81	11013,50
999,24	10563,90
999,67	11776,50
1000,10	11031,30
1000,53	11068,70
1000,95	11711,10
1001,38	10656,10
1001,81	11180,20
1002,24	11361,40
1002,67	11036,10
1003,10	11124,80
1003,53	11020,20
1003,95	11238,80
1004,38	10501,70
1004,81	11113,90
1005,24	11003,50
1005,67	11568,90
1006,10	10766,60
1006,52	10316,60
1006,95	11143,70
1007,38	10940,00
1007,81	10591,70
1008,24	10482,50
1008,67	11036,70
1009,09	10936,50
1009,52	13223,20
1009,95	11656,30
1010,38	11589,80
1010,81	11180,80
1011,23	11332,50
1011,66	11554,00
1012,09	10887,00
1012,52	11359,50
1012,95	11024,30
1013,37	11151,40
1013,80	11126,30
1014,23	10426,30
1014,66	11522,40
1015,08	10135,60
1015,51	11132,90
1015,94	10416,40
1016,37	10772,40
1016,80	10362,70
1017,22	10932,90
1017,65	10617,70
1018,08	10689,70
1018,51	10775,60
1018,93	10173,80
1019,36	12457,80
1019,79	11508,00
1020,21	11255,80
1020,64	10766,00
1021,07	10914,70
1021,50	11098,20
1021,92	11133,20
1022,35	11313,40
1022,78	10996,80
1023,21	13031,10
1023,63	11638,30
1024,06	11541,60
1024,49	11412,60
1024,91	11124,10
1025,34	11036,30
1025,77	11265,50
1026,19	10554,80
1026,62	10516,80
1027,05	12190,90
1027,47	11266,80
1027,90	11151,30
1028,33	11029,00
1028,75	11145,00
1029,18	10769,90
1029,61	12306,70
1030,03	11210,90
1030,46	11144,20
1030,89	11295,10
1031,31	11863,90
1031,74	10658,30
1032,17	11279,80
1032,59	11576,30
1033,02	10931,50
1033,45	11684,70
1033,87	10816,80
1034,30	10795,20
1034,73	11389,90
1035,15	11568,60
1035,58	11055,10
1036,00	12172,00
1036,43	10930,40
1036,86	10925,40
1037,28	11283,10
1037,71	10502,20
1038,13	11404,20
1038,56	11441,80
1038,99	11380,90
1039,41	11548,90
1039,84	11809,90
1040,26	10908,40
1040,69	10889,40
1041,11	11182,00
1041,54	10799,00
1041,97	11598,90
1042,39	11599,20
1042,82	11190,20
1043,24	11358,70
1043,67	10843,90
1044,09	11219,80
1044,52	10420,50
1044,95	10680,30
1045,37	10574,70
1045,80	10227,00
1046,22	10727,90
1046,65	10955,90
1047,07	10321,90
1047,50	10832,30
1047,92	11005,60
1048,35	10257,00
1048,77	11129,30
1049,20	10958,20
1049,62	11076,60
1050,05	10547,50
1050,47	10577,20
1050,90	10915,80
1051,32	11143,70
1051,75	11287,20
1052,17	11207,60
1052,60	10647,30
1053,02	10816,30
1053,45	9633,40
1053,87	10540,30
1054,30	9831,20
1054,72	10457,80
1055,15	10249,70
1055,57	10674,50
1056,00	10804,00
1056,42	11513,90
1056,85	11011,90
1057,27	10954,90
1057,70	10479,50
1058,12	12577,30
1058,54	9945,40
1058,97	10661,80
1059,39	10742,60
1059,82	10246,40
1060,24	10266,50
1060,67	10187,20
1061,09	10857,40
1061,51	10445,70
1061,94	10279,50
1062,36	10768,10
1062,79	11110,90
1063,21	10527,50
1063,64	10354,40
1064,06	10140,50
1064,48	10922,70
1064,91	11024,80
1065,33	10346,70
1065,76	10244,10
1066,18	9959,60
1066,60	10944,10
1067,03	10504,00
1067,45	10390,90
1067,87	10514,50
1068,30	10182,20
1068,72	11279,80
1069,15	10259,80
1069,57	10052,10
1069,99	9734,40
1070,42	10719,20
1070,84	10832,70
1071,26	10738,60
1071,69	10112,60
1072,11	10531,80
1072,53	9908,20
1072,96	9779,00
1073,38	9646,00
1073,80	10455,10
1074,23	10009,30
1074,65	9566,60
1075,07	9946,20
1075,50	9961,60
1075,92	10226,50
1076,34	9838,10
1076,77	9792,30
1077,19	9968,30
1077,61	10583,30
1078,04	9891,10
1078,46	10459,00
1078,88	10887,60
1079,30	9301,20
1079,73	10219,00
1080,15	9839,80
1080,57	10015,30
1081,00	10273,30
1081,42	9983,00
1081,84	9845,10
1082,26	10215,20
1082,69	9955,40
1083,11	9849,60
1083,53	10027,10
1083,95	9997,50
1084,38	10488,50
1084,80	9979,60
1085,22	9814,70
1085,64	10554,80
1086,07	9602,00
1086,49	9859,60
1086,91	10053,40
1087,33	9237,10
1087,76	10286,40
1088,18	21626,10
1088,60	10142,30
1089,02	9667,60
1089,45	9703,60
1089,87	9805,00
1090,29	10420,20
1090,71	9834,80
1091,13	9423,20
1091,56	9714,90
1091,98	9728,00
1092,40	9527,70
1092,82	9729,50
1093,24	9554,20
1093,66	9820,40
1094,09	9696,00
1094,51	9895,80
1094,93	9710,30
1095,35	9892,50
1095,77	9486,40
1096,19	9835,20
1096,62	10099,80
1097,04	9355,20
1097,46	9814,10
1097,88	9479,80
1098,30	10076,50
1098,72	10065,20
1099,15	9979,50
1099,57	9706,00
1099,99	9597,30
1100,41	9406,20
1100,83	9568,40
1101,25	9529,20
1101,67	9728,70
1102,09	9181,00
1102,52	9365,60
1102,94	9586,90
1103,36	9586,20
1103,78	9749,60
1104,20	9435,60
1104,62	10460,80
1105,04	8751,60
1105,46	9638,00
1105,88	9520,40
1106,30	9260,60
1106,73	9446,40
1107,15	8711,60
1107,57	8968,10
1107,99	10033,00
1108,41	8981,70
1108,83	9729,30
1109,25	9647,90
1109,67	9608,20
1110,09	8741,30
1110,51	9235,30
1110,93	8782,00
1111,35	9162,90
1111,77	8814,00
1112,19	8947,90
1112,61	8654,60
1113,03	9083,90
1113,45	8843,90
1113,87	8915,50
1114,29	9254,00
1114,71	9393,30
1115,13	8947,00
1115,55	9158,10
1115,98	8988,40
1116,40	9269,80
1116,82	9201,80
1117,24	8845,20
1117,66	8700,30
1118,08	2049,10
1118,50	2196,10
1118,91	2185,10
1119,33	2186,30
>>>>>End Processed Spectral Data<<<<<
