SpectraSuite Data File
++++++++++++++++++++++++++++++++++++
Date: Tue Oct 14 10:29:00 EEST 2014
User: OO Maya
Dark Spectrum Present: No
Reference Spectrum Present: No
Number of Sampled Component Spectra: 1
Spectrometers: MAYP11278
Integration Time (usec): 5000000 (MAYP11278)
Spectra Averaged: 10 (MAYP11278)
Boxcar Smoothing: 0 (MAYP11278)
Correct for Electrical Dark: No (MAYP11278)
Strobe/Lamp Enabled: No (MAYP11278)
Correct for Detector Non-linearity: No (MAYP11278)
Correct for Stray Light: No (MAYP11278)
Number of Pixels in Processed Spectrum: 2068
>>>>>Begin Processed Spectral Data<<<<<
188,14	2312,90
188,62	2226,60
189,09	2198,80
189,57	2196,80
190,05	10933,00
190,53	11664,90
191,01	11760,30
191,49	11801,70
191,97	12373,30
192,44	11801,50
192,92	11609,30
193,40	11292,20
193,88	11752,80
194,36	11684,60
194,84	12039,10
195,31	11637,90
195,79	12268,50
196,27	11674,00
196,75	11783,10
197,23	13289,90
197,70	11793,10
198,18	11451,60
198,66	11745,10
199,14	11452,20
199,62	12092,40
200,09	12328,30
200,57	11712,00
201,05	11801,80
201,53	12291,20
202,01	12253,20
202,48	12243,00
202,96	11401,50
203,44	12146,90
203,92	11547,70
204,40	12410,60
204,87	12625,20
205,35	11633,70
205,83	11672,30
206,31	12707,60
206,78	11829,70
207,26	12208,50
207,74	13355,80
208,22	12040,10
208,69	12374,60
209,17	11826,20
209,65	12483,00
210,13	12312,80
210,60	11989,20
211,08	11988,90
211,56	12318,40
212,04	12036,70
212,51	11616,70
212,99	13055,40
213,47	12347,10
213,95	11828,30
214,42	12871,40
214,90	12234,50
215,38	12830,70
215,85	12230,10
216,33	12399,10
216,81	12379,90
217,29	12417,90
217,76	11706,30
218,24	12080,60
218,72	12824,70
219,19	11394,20
219,67	11742,30
220,15	11820,10
220,62	12090,50
221,10	13333,80
221,58	11744,40
222,05	12610,80
222,53	11791,00
223,01	12536,80
223,49	11902,00
223,96	12550,60
224,44	12029,00
224,92	11915,70
225,39	11606,90
225,87	12027,40
226,35	11802,60
226,82	12121,80
227,30	12695,30
227,77	12034,30
228,25	12403,40
228,73	12465,70
229,20	12381,10
229,68	12035,90
230,16	12152,90
230,63	11903,40
231,11	12514,40
231,59	12599,50
232,06	12222,00
232,54	12306,40
233,02	11703,20
233,49	12195,50
233,97	12257,00
234,44	14076,60
234,92	12350,20
235,40	11847,60
235,87	11708,80
236,35	11544,90
236,82	12688,00
237,30	13299,00
237,78	11911,70
238,25	12255,30
238,73	12259,50
239,20	12256,70
239,68	12089,50
240,16	11556,30
240,63	12504,40
241,11	12941,70
241,58	12265,10
242,06	12036,60
242,53	12628,70
243,01	12780,00
243,49	11637,70
243,96	11778,30
244,44	12633,80
244,91	12918,30
245,39	12040,20
245,86	12800,60
246,34	30790,50
246,82	11489,50
247,29	12289,70
247,77	12204,40
248,24	12338,70
248,72	12393,50
249,19	11453,00
249,67	12174,70
250,14	12574,70
250,62	12303,80
251,09	12964,80
251,57	12282,30
252,04	13322,30
252,52	12900,20
253,00	11960,20
253,47	12864,00
253,95	12283,10
254,42	12154,10
254,90	12361,20
255,37	12345,00
255,85	12682,80
256,32	11994,60
256,80	12369,40
257,27	12528,80
257,75	12777,10
258,22	13913,50
258,70	12361,90
259,17	11975,90
259,65	12385,80
260,12	12537,10
260,59	13107,30
261,07	12104,20
261,54	11999,10
262,02	12800,20
262,49	11871,00
262,97	12393,50
263,44	12169,80
263,92	11630,20
264,39	12643,50
264,87	12817,50
265,34	12069,90
265,82	12347,60
266,29	12455,90
266,76	12684,10
267,24	12127,10
267,71	12234,80
268,19	12399,10
268,66	12444,40
269,14	11417,70
269,61	11732,60
270,09	11816,10
270,56	12491,60
271,03	12766,30
271,51	12011,50
271,98	12194,20
272,46	11598,50
272,93	11708,70
273,40	11341,10
273,88	12265,10
274,35	14235,60
274,83	12472,60
275,30	12571,10
275,78	11875,30
276,25	12140,00
276,72	12497,30
277,20	12534,00
277,67	11578,30
278,14	11987,30
278,62	11495,80
279,09	14115,90
279,57	11730,70
280,04	11690,20
280,51	14227,20
280,99	12989,20
281,46	14481,90
281,93	12368,50
282,41	13154,00
282,88	12287,40
283,36	12367,10
283,83	12555,00
284,30	11910,00
284,78	11810,30
285,25	12698,90
285,72	12267,60
286,20	12465,10
286,67	12498,70
287,14	11614,50
287,62	12509,00
288,09	12986,10
288,56	12127,50
289,04	12671,50
289,51	11386,70
289,98	13098,00
290,46	11843,10
290,93	12432,00
291,40	11923,80
291,88	12470,50
292,35	13555,30
292,82	11993,40
293,29	12889,10
293,77	11994,30
294,24	12562,50
294,71	12516,20
295,19	11976,50
295,66	12264,50
296,13	12449,30
296,61	13291,20
297,08	13159,20
297,55	12641,30
298,02	12526,50
298,50	12495,80
298,97	12007,60
299,44	13209,60
299,91	12163,70
300,39	12546,00
300,86	11983,30
301,33	12857,70
301,81	12834,10
302,28	12708,50
302,75	11764,60
303,22	12630,90
303,70	12688,60
304,17	11965,00
304,64	12024,80
305,11	11869,70
305,58	12421,40
306,06	12499,70
306,53	12453,00
307,00	12697,90
307,47	12043,90
307,95	12083,50
308,42	12409,40
308,89	12045,20
309,36	12781,00
309,83	12808,60
310,31	12484,20
310,78	12366,10
311,25	12550,70
311,72	12006,80
312,20	12929,20
312,67	12301,00
313,14	13285,60
313,61	11995,80
314,08	12175,00
314,56	12457,70
315,03	12047,00
315,50	11975,30
315,97	12823,40
316,44	12631,70
316,91	12513,40
317,39	12722,60
317,86	12456,20
318,33	13939,20
318,80	12343,10
319,27	12259,20
319,74	11705,20
320,22	12589,70
320,69	13391,00
321,16	12814,30
321,63	12219,20
322,10	11525,80
322,57	11855,40
323,04	13305,10
323,52	12224,60
323,99	13900,50
324,46	11656,90
324,93	12495,30
325,40	12309,60
325,87	12200,30
326,34	12144,10
326,82	12148,10
327,29	12600,80
327,76	12587,70
328,23	12607,50
328,70	12435,90
329,17	12235,00
329,64	12207,40
330,11	12184,30
330,58	12000,10
331,05	12780,50
331,53	12624,10
332,00	13310,00
332,47	11967,30
332,94	13425,00
333,41	12804,10
333,88	12693,00
334,35	13085,50
334,82	12470,50
335,29	12618,70
335,76	14408,40
336,23	11838,80
336,70	12354,30
337,18	12190,90
337,65	12482,10
338,12	12192,90
338,59	12197,40
339,06	13283,00
339,53	12838,90
340,00	11848,40
340,47	11956,20
340,94	11967,40
341,41	12604,70
341,88	13002,20
342,35	12150,40
342,82	12515,10
343,29	12755,20
343,76	12495,60
344,23	12172,50
344,70	12317,40
345,17	11952,30
345,64	12336,60
346,11	12692,00
346,58	12156,60
347,05	12048,70
347,52	13239,30
347,99	12092,40
348,46	12968,00
348,93	12483,70
349,40	11699,20
349,87	12429,40
350,34	12794,70
350,81	12441,60
351,28	11972,30
351,75	12591,20
352,22	13380,80
352,69	12492,80
353,16	12289,30
353,63	12452,50
354,10	12767,50
354,57	12542,40
355,04	12742,40
355,51	12553,40
355,98	13293,60
356,45	12025,40
356,92	13372,10
357,39	11975,60
357,86	13621,00
358,33	12771,40
358,80	11813,40
359,27	11938,20
359,74	12144,00
360,21	12151,20
360,68	12875,00
361,14	13218,70
361,61	12225,70
362,08	12291,80
362,55	12447,70
363,02	12288,60
363,49	12332,10
363,96	13687,00
364,43	12692,10
364,90	12029,10
365,37	12672,00
365,84	12167,10
366,31	11820,90
366,77	12520,10
367,24	12366,40
367,71	20050,60
368,18	11488,90
368,65	11912,70
369,12	12809,10
369,59	11846,60
370,06	12920,50
370,53	12560,20
370,99	12192,20
371,46	17735,60
371,93	12522,80
372,40	12038,10
372,87	11664,80
373,34	12072,20
373,81	12440,40
374,27	11707,50
374,74	11933,70
375,21	12552,20
375,68	11595,60
376,15	13214,30
376,62	12151,70
377,09	11880,60
377,55	11804,20
378,02	12614,80
378,49	12517,60
378,96	12290,40
379,43	12378,70
379,90	12275,30
380,36	12679,20
380,83	13253,80
381,30	12465,30
381,77	13225,80
382,24	13155,20
382,71	11730,40
383,17	12561,40
383,64	12224,90
384,11	12911,10
384,58	12364,30
385,05	15280,70
385,51	12378,90
385,98	12165,10
386,45	12202,60
386,92	13314,80
387,39	11919,90
387,85	11736,40
388,32	12908,10
388,79	12563,80
389,26	13048,20
389,72	11997,10
390,19	12694,40
390,66	12518,10
391,13	12711,00
391,59	12502,70
392,06	12507,30
392,53	12575,10
393,00	12309,20
393,46	12207,90
393,93	13696,00
394,40	12331,40
394,87	13014,00
395,33	12033,50
395,80	12740,50
396,27	15100,30
396,74	11673,90
397,20	12739,40
397,67	12781,80
398,14	11881,80
398,61	12363,30
399,07	12111,80
399,54	11899,00
400,01	12926,90
400,47	11829,60
400,94	12304,00
401,41	12073,20
401,88	12611,20
402,34	12516,80
402,81	12413,00
403,28	11962,70
403,74	13232,90
404,21	12202,20
404,68	13060,00
405,14	13446,80
405,61	13046,70
406,08	11891,90
406,54	12792,70
407,01	12716,10
407,48	13569,70
407,95	12346,40
408,41	12454,60
408,88	12741,50
409,35	11822,00
409,81	13037,30
410,28	11873,90
410,74	13088,60
411,21	11973,20
411,68	13170,80
412,14	12196,40
412,61	11555,60
413,08	12617,00
413,54	12094,90
414,01	12571,50
414,48	12685,80
414,94	13311,10
415,41	12250,60
415,88	13312,20
416,34	12524,50
416,81	12424,20
417,27	13379,20
417,74	12607,80
418,21	12273,50
418,67	12428,00
419,14	12493,70
419,60	12813,80
420,07	11963,40
420,54	12809,20
421,00	11777,90
421,47	12326,40
421,93	12052,20
422,40	12595,70
422,87	12065,30
423,33	12316,80
423,80	12607,70
424,26	12833,90
424,73	12392,50
425,19	12837,40
425,66	12417,10
426,13	13155,00
426,59	12167,10
427,06	13058,00
427,52	12761,90
427,99	12894,40
428,45	11876,50
428,92	12925,00
429,38	12600,50
429,85	12392,00
430,32	12569,60
430,78	14204,60
431,25	11709,20
431,71	12285,40
432,18	13249,10
432,64	12879,70
433,11	12278,30
433,57	12086,00
434,04	12331,20
434,50	12190,70
434,97	12719,50
435,43	11817,20
435,90	12738,80
436,36	12429,30
436,83	11827,20
437,29	12812,10
437,76	12525,30
438,22	12515,20
438,69	11996,50
439,15	12186,60
439,62	14632,40
440,08	12552,40
440,55	12878,50
441,01	13086,10
441,48	11964,00
441,94	12211,30
442,41	13830,40
442,87	11891,40
443,34	12583,40
443,80	12529,80
444,27	11811,60
444,73	13290,50
445,20	12618,50
445,66	12378,10
446,12	12336,40
446,59	12568,30
447,05	12226,50
447,52	12381,70
447,98	12053,10
448,45	11977,70
448,91	12636,20
449,38	12705,40
449,84	12244,00
450,30	11903,10
450,77	11872,60
451,23	12010,80
451,70	12431,70
452,16	12687,50
452,63	11919,90
453,09	12927,20
453,55	12255,00
454,02	12278,10
454,48	12349,00
454,95	12640,90
455,41	12085,60
455,87	12378,20
456,34	12747,60
456,80	12013,00
457,27	13018,60
457,73	12232,90
458,19	12190,20
458,66	11662,30
459,12	12418,10
459,58	12177,20
460,05	12434,50
460,51	12028,20
460,98	11718,20
461,44	13118,10
461,90	12773,70
462,37	11812,40
462,83	11592,20
463,29	12828,40
463,76	12004,80
464,22	12345,90
464,68	12254,70
465,15	11693,00
465,61	11883,20
466,07	12656,40
466,54	12155,20
467,00	12399,80
467,46	12420,50
467,93	12032,70
468,39	12280,40
468,85	12382,90
469,32	12015,60
469,78	11619,40
470,24	12305,60
470,71	12158,60
471,17	11796,50
471,63	11919,70
472,10	11631,80
472,56	11753,60
473,02	11903,20
473,48	12805,00
473,95	11946,30
474,41	11570,50
474,87	11948,80
475,34	11453,10
475,80	12174,30
476,26	11970,60
476,72	12144,20
477,19	11940,10
477,65	11999,20
478,11	12762,40
478,58	12053,60
479,04	12469,40
479,50	11481,50
479,96	12922,00
480,43	12174,30
480,89	12037,00
481,35	11535,80
481,81	11863,70
482,28	11941,10
482,74	11219,30
483,20	11681,10
483,66	11167,80
484,13	11667,10
484,59	12697,40
485,05	11902,80
485,51	11766,00
485,97	10985,60
486,44	11625,90
486,90	10962,80
487,36	11954,20
487,82	11028,70
488,29	11040,10
488,75	11336,70
489,21	11803,40
489,67	11670,40
490,13	12196,00
490,60	11115,60
491,06	11708,90
491,52	10976,90
491,98	11320,40
492,44	10810,50
492,90	12161,10
493,37	11708,40
493,83	11602,30
494,29	11193,10
494,75	11401,90
495,21	11246,30
495,67	11126,80
496,14	11574,80
496,60	11249,50
497,06	11462,90
497,52	12568,30
497,98	12165,10
498,44	11205,60
498,91	11609,50
499,37	11321,60
499,83	12925,20
500,29	11510,80
500,75	11166,20
501,21	11444,40
501,67	11238,60
502,14	11826,50
502,60	11439,80
503,06	11464,50
503,52	11413,20
503,98	11774,60
504,44	11167,90
504,90	11704,60
505,36	11616,40
505,82	11087,90
506,29	11428,60
506,75	11917,30
507,21	11440,40
507,67	11768,70
508,13	11625,20
508,59	11096,30
509,05	11063,70
509,51	10760,60
509,97	11265,50
510,43	11409,80
510,89	11095,30
511,35	12152,30
511,82	12116,00
512,28	11067,20
512,74	10712,90
513,20	11024,00
513,66	11689,40
514,12	10551,90
514,58	11926,40
515,04	12511,80
515,50	10660,20
515,96	11624,30
516,42	12002,90
516,88	11876,00
517,34	12880,20
517,80	11698,30
518,26	11430,40
518,72	13520,40
519,18	11458,60
519,64	11117,10
520,10	10841,10
520,56	10997,70
521,02	11542,90
521,48	11727,00
521,94	11851,80
522,40	11397,00
522,86	10897,00
523,32	12390,80
523,78	11944,80
524,24	11279,30
524,70	12689,70
525,16	11766,20
525,62	11677,80
526,08	12277,20
526,54	11576,20
527,00	11451,00
527,46	11199,00
527,92	11317,60
528,38	11906,80
528,84	11734,70
529,30	11216,40
529,76	10949,70
530,22	11725,70
530,68	11816,70
531,14	10836,10
531,60	12056,40
532,06	11396,20
532,52	11463,50
532,98	11474,80
533,44	11723,70
533,90	11298,70
534,36	10859,00
534,82	11350,00
535,28	11124,70
535,73	11576,10
536,19	11172,80
536,65	11696,50
537,11	10928,10
537,57	11755,20
538,03	11359,40
538,49	11376,00
538,95	12382,40
539,41	11770,00
539,87	14598,70
540,33	10787,30
540,79	12386,30
541,24	11525,50
541,70	10868,60
542,16	11750,80
542,62	11611,10
543,08	11179,70
543,54	12997,20
544,00	10834,80
544,46	12692,70
544,91	11851,90
545,37	11258,80
545,83	11250,60
546,29	11874,40
546,75	11403,20
547,21	11652,10
547,67	11856,00
548,13	11592,10
548,58	11306,20
549,04	11214,50
549,50	10951,10
549,96	12768,90
550,42	11275,20
550,88	10869,10
551,33	11618,50
551,79	11455,50
552,25	12555,80
552,71	11598,00
553,17	10985,00
553,63	11684,30
554,08	11310,80
554,54	10915,30
555,00	11608,20
555,46	11526,30
555,92	12494,40
556,37	11491,30
556,83	12203,70
557,29	10596,10
557,75	11660,60
558,21	12686,60
558,66	11224,70
559,12	11351,40
559,58	11008,70
560,04	11081,00
560,50	10965,20
560,95	11431,70
561,41	11318,60
561,87	11327,60
562,33	11083,30
562,78	11042,80
563,24	11441,40
563,70	12041,90
564,16	10999,10
564,61	11512,50
565,07	11269,40
565,53	11311,10
565,99	11503,50
566,44	12127,70
566,90	11265,10
567,36	11124,70
567,82	11434,40
568,27	11931,00
568,73	11120,60
569,19	11346,20
569,65	11724,70
570,10	11481,10
570,56	11363,30
571,02	11873,00
571,47	11787,40
571,93	11370,20
572,39	11506,10
572,85	11671,30
573,30	11080,40
573,76	11137,10
574,22	11473,80
574,67	12306,90
575,13	11915,70
575,59	10838,10
576,04	11553,60
576,50	10557,80
576,96	12111,40
577,42	11268,60
577,87	11211,70
578,33	10822,80
578,79	12160,70
579,24	11325,20
579,70	11153,10
580,16	11585,60
580,61	11569,70
581,07	11384,90
581,53	11412,70
581,98	11567,50
582,44	11319,20
582,89	10820,30
583,35	11369,40
583,81	11617,00
584,26	11305,30
584,72	11784,30
585,18	11082,40
585,63	12972,10
586,09	11267,90
586,55	11246,30
587,00	11370,40
587,46	11329,80
587,91	11976,30
588,37	10845,40
588,83	11738,70
589,28	11306,50
589,74	11109,30
590,19	11647,80
590,65	11846,40
591,11	11204,60
591,56	10749,90
592,02	12214,90
592,47	11104,80
592,93	11560,70
593,39	11472,70
593,84	11891,30
594,30	11415,70
594,75	11360,20
595,21	12171,30
595,66	11221,40
596,12	10901,00
596,58	12290,30
597,03	11858,30
597,49	12099,30
597,94	11579,90
598,40	10811,20
598,85	11416,10
599,31	12207,60
599,76	11065,20
600,22	11769,70
600,67	12040,10
601,13	11709,30
601,59	11884,40
602,04	10746,30
602,50	13216,60
602,95	11207,00
603,41	11484,90
603,86	10732,80
604,32	10695,50
604,77	11721,00
605,23	11242,50
605,68	11729,90
606,14	11443,60
606,59	10696,00
607,05	11429,30
607,50	11226,90
607,96	11436,10
608,41	11771,80
608,87	11424,90
609,32	12877,80
609,78	11906,10
610,23	11334,80
610,69	11153,80
611,14	11513,30
611,60	10839,90
612,05	12603,80
612,50	11779,00
612,96	11450,50
613,41	13223,40
613,87	10787,80
614,32	10810,20
614,78	10840,30
615,23	10824,40
615,69	11262,50
616,14	11383,30
616,59	10909,60
617,05	11332,80
617,50	11288,60
617,96	11856,80
618,41	11007,00
618,87	11205,20
619,32	11297,60
619,77	11800,50
620,23	11230,40
620,68	11780,00
621,14	11965,30
621,59	11390,70
622,05	11909,70
622,50	12152,90
622,95	11988,70
623,41	11045,60
623,86	11026,90
624,32	11951,00
624,77	10748,80
625,22	11274,40
625,68	11527,80
626,13	10994,40
626,58	11357,30
627,04	11569,00
627,49	10888,30
627,95	11772,20
628,40	11865,10
628,85	10692,60
629,31	11283,80
629,76	11464,30
630,21	11066,50
630,67	11708,40
631,12	11379,90
631,57	11822,30
632,03	11582,70
632,48	11963,80
632,93	11089,80
633,39	11249,70
633,84	11088,20
634,29	11163,50
634,75	10867,70
635,20	11159,70
635,65	11085,30
636,11	10715,20
636,56	11394,30
637,01	11310,30
637,47	10922,40
637,92	11798,70
638,37	11893,70
638,83	11113,70
639,28	11432,60
639,73	10835,90
640,18	10603,60
640,64	11558,10
641,09	11937,00
641,54	10720,50
642,00	11163,10
642,45	11187,40
642,90	10634,10
643,35	11140,50
643,81	11793,40
644,26	11068,40
644,71	10882,60
645,17	11096,70
645,62	10954,10
646,07	11299,40
646,52	11435,70
646,98	11638,90
647,43	11766,70
647,88	11421,50
648,33	11536,30
648,79	10776,80
649,24	12086,90
649,69	11603,70
650,14	13832,90
650,59	10886,60
651,05	10929,60
651,50	11052,90
651,95	11476,80
652,40	10867,30
652,86	11367,80
653,31	11020,00
653,76	10995,80
654,21	11385,50
654,66	11536,60
655,12	11207,60
655,57	10778,20
656,02	11739,70
656,47	10975,30
656,92	11317,70
657,38	11678,90
657,83	11678,90
658,28	10916,80
658,73	11350,20
659,18	10886,70
659,63	13936,70
660,09	11120,30
660,54	12024,00
660,99	11295,60
661,44	10892,10
661,89	11240,90
662,34	10883,80
662,80	10511,30
663,25	11572,20
663,70	11126,10
664,15	11110,60
664,60	11253,10
665,05	10785,50
665,50	11424,30
665,96	10752,20
666,41	11427,70
666,86	11384,40
667,31	12854,30
667,76	12133,30
668,21	10940,30
668,66	11466,00
669,11	10901,20
669,56	12680,40
670,02	10434,90
670,47	11026,00
670,92	11955,80
671,37	11327,40
671,82	12227,80
672,27	12739,80
672,72	11245,10
673,17	11379,60
673,62	12021,50
674,07	13324,20
674,52	11451,90
674,98	11603,90
675,43	10623,10
675,88	10778,50
676,33	11431,10
676,78	11234,80
677,23	11183,30
677,68	11129,00
678,13	12978,70
678,58	10952,60
679,03	11188,70
679,48	11538,80
679,93	11043,70
680,38	11359,80
680,83	11298,40
681,28	10449,50
681,73	10424,80
682,18	11130,50
682,63	11309,20
683,08	11652,50
683,53	11536,30
683,98	11421,00
684,43	12037,80
684,89	11588,50
685,34	11372,00
685,79	11549,70
686,24	11208,60
686,69	10890,70
687,14	11438,50
687,59	11089,60
688,04	11370,00
688,49	11244,20
688,93	12921,40
689,38	11737,40
689,83	10590,10
690,28	11187,10
690,73	11281,60
691,18	10675,80
691,63	11233,30
692,08	10587,40
692,53	11295,80
692,98	11201,60
693,43	11667,50
693,88	11536,90
694,33	11328,60
694,78	11485,30
695,23	14020,20
695,68	11390,20
696,13	11395,50
696,58	12452,10
697,03	11263,90
697,48	11014,80
697,93	11572,20
698,38	10976,90
698,82	11702,00
699,27	11761,60
699,72	11029,60
700,17	11155,30
700,62	11695,70
701,07	11864,90
701,52	13720,20
701,97	10662,80
702,42	12220,50
702,87	10991,20
703,32	11086,50
703,76	11412,30
704,21	11233,50
704,66	11064,70
705,11	11995,30
705,56	11921,70
706,01	11869,30
706,46	10702,50
706,91	11661,20
707,36	11292,30
707,80	11187,40
708,25	11434,10
708,70	11818,80
709,15	11446,60
709,60	11067,80
710,05	11291,80
710,50	11305,10
710,94	11009,00
711,39	11648,90
711,84	11379,10
712,29	11346,00
712,74	10960,30
713,19	12563,30
713,63	11290,00
714,08	11474,60
714,53	12159,00
714,98	11830,00
715,43	11198,10
715,87	11424,40
716,32	11117,50
716,77	11110,60
717,22	10757,70
717,67	10654,80
718,12	11571,00
718,56	12362,90
719,01	10857,00
719,46	10816,30
719,91	11438,40
720,35	11248,70
720,80	10982,70
721,25	11456,70
721,70	11055,10
722,15	11575,60
722,59	11204,90
723,04	10715,40
723,49	10547,30
723,94	11393,80
724,38	10525,60
724,83	11549,30
725,28	10550,70
725,73	11219,60
726,17	11166,30
726,62	11353,10
727,07	12454,60
727,52	10866,30
727,96	12167,90
728,41	11596,10
728,86	11156,30
729,31	12026,70
729,75	10976,50
730,20	11845,90
730,65	10802,50
731,09	11420,20
731,54	11503,00
731,99	11425,70
732,44	11492,70
732,88	10914,60
733,33	11685,70
733,78	11436,80
734,22	10952,90
734,67	11757,50
735,12	11666,80
735,57	11371,70
736,01	13060,70
736,46	10908,00
736,91	11386,60
737,35	11799,20
737,80	11729,60
738,25	11374,00
738,69	11136,10
739,14	11355,70
739,59	10738,20
740,03	11968,30
740,48	11604,30
740,93	10936,50
741,37	11554,30
741,82	11671,40
742,26	11314,30
742,71	11325,30
743,16	10823,20
743,60	10861,20
744,05	11236,20
744,50	11940,10
744,94	11826,70
745,39	11598,50
745,84	11843,70
746,28	12217,30
746,73	10268,00
747,17	10888,80
747,62	10656,90
748,07	11551,40
748,51	11275,00
748,96	11067,30
749,40	11504,30
749,85	12993,20
750,30	11445,80
750,74	11201,80
751,19	10692,90
751,63	11078,20
752,08	11073,00
752,53	11197,60
752,97	12462,70
753,42	10958,00
753,86	11192,40
754,31	10656,90
754,75	11067,10
755,20	10761,50
755,64	11186,80
756,09	11331,70
756,54	11973,60
756,98	11158,80
757,43	12087,10
757,87	11322,70
758,32	11170,10
758,76	11229,90
759,21	11147,60
759,65	10798,70
760,10	11199,20
760,54	11557,30
760,99	11272,20
761,43	11627,70
761,88	12042,60
762,33	11101,80
762,77	10582,70
763,22	11130,20
763,66	11755,80
764,11	11274,00
764,55	10731,20
765,00	11031,60
765,44	11500,40
765,89	10863,90
766,33	10688,20
766,77	10971,50
767,22	11327,50
767,66	11344,90
768,11	11518,10
768,55	11710,00
769,00	11166,10
769,44	12495,90
769,89	10815,00
770,33	11180,10
770,78	10908,20
771,22	10744,60
771,67	11610,40
772,11	11415,20
772,56	11479,40
773,00	10543,60
773,44	11108,50
773,89	10984,40
774,33	10397,50
774,78	11275,50
775,22	10835,20
775,67	11369,20
776,11	11279,50
776,55	10823,70
777,00	11173,40
777,44	11179,30
777,89	11491,40
778,33	11691,60
778,77	11062,60
779,22	11327,30
779,66	13078,20
780,11	12116,60
780,55	11345,80
780,99	11931,50
781,44	11600,10
781,88	10864,80
782,33	11489,40
782,77	10746,20
783,21	11103,30
783,66	11686,10
784,10	11807,40
784,55	11240,20
784,99	11077,80
785,43	11163,50
785,88	10909,40
786,32	11627,50
786,76	11889,70
787,21	11963,50
787,65	10798,60
788,09	10981,90
788,54	11419,80
788,98	10941,60
789,42	11096,00
789,87	10990,80
790,31	11365,30
790,75	10852,40
791,20	10960,70
791,64	11931,70
792,08	11055,90
792,53	11261,80
792,97	10969,00
793,41	13874,20
793,86	11884,50
794,30	11346,60
794,74	11407,70
795,18	11323,80
795,63	10814,50
796,07	11517,80
796,51	11166,90
796,96	11272,60
797,40	10998,60
797,84	10783,80
798,28	11226,40
798,73	11882,50
799,17	11421,60
799,61	10812,00
800,06	12282,90
800,50	11466,20
800,94	10884,40
801,38	11528,20
801,83	11426,40
802,27	10896,90
802,71	11944,80
803,15	12388,80
803,60	11648,50
804,04	11453,20
804,48	11201,50
804,92	10988,30
805,37	12336,70
805,81	12639,70
806,25	12397,60
806,69	11691,40
807,13	12625,80
807,58	11098,50
808,02	11347,20
808,46	10775,30
808,90	11572,40
809,34	11410,20
809,79	10996,60
810,23	10823,70
810,67	11521,60
811,11	12097,50
811,55	13417,70
812,00	11016,40
812,44	10908,90
812,88	11713,90
813,32	12459,70
813,76	11851,50
814,21	11404,20
814,65	11791,70
815,09	11692,10
815,53	11503,90
815,97	11060,10
816,41	10845,50
816,85	11055,20
817,30	11759,20
817,74	11363,10
818,18	11913,30
818,62	11028,40
819,06	11665,30
819,50	11989,30
819,94	11166,60
820,39	11573,20
820,83	11086,50
821,27	11314,70
821,71	10892,10
822,15	12231,30
822,59	10867,40
823,03	11392,50
823,47	11458,10
823,92	10798,30
824,36	11403,90
824,80	11281,20
825,24	11461,80
825,68	11517,00
826,12	10810,90
826,56	11120,40
827,00	10431,70
827,44	11311,00
827,88	11747,30
828,32	12021,80
828,77	11001,30
829,21	11811,60
829,65	11551,90
830,09	10985,20
830,53	12288,30
830,97	11114,80
831,41	12778,40
831,85	11933,50
832,29	11734,10
832,73	10679,60
833,17	11258,70
833,61	11224,00
834,05	12208,60
834,49	11689,70
834,93	11257,40
835,37	11051,50
835,81	11923,90
836,25	11278,60
836,69	11472,70
837,13	11259,30
837,57	11815,60
838,01	10927,40
838,45	11012,10
838,89	11429,60
839,33	11323,10
839,77	12173,10
840,21	12617,60
840,65	11363,90
841,09	12127,00
841,53	10472,50
841,97	10987,60
842,41	10700,20
842,85	11093,10
843,29	11699,10
843,73	11357,90
844,17	11764,50
844,61	11293,60
845,05	10900,00
845,49	11705,80
845,93	11213,00
846,37	11685,90
846,81	11034,60
847,25	10904,60
847,69	11377,20
848,13	10971,80
848,57	11136,30
849,01	11091,50
849,45	11638,40
849,89	12041,30
850,32	11715,20
850,76	11144,30
851,20	11821,80
851,64	10927,00
852,08	11486,30
852,52	11913,00
852,96	11072,70
853,40	11087,40
853,84	11724,70
854,28	10704,20
854,72	11853,70
855,16	10677,90
855,59	11013,70
856,03	11916,10
856,47	12257,40
856,91	11368,10
857,35	11553,10
857,79	11338,80
858,23	10743,80
858,67	12146,70
859,10	10437,10
859,54	10945,90
859,98	11063,40
860,42	11229,20
860,86	11441,70
861,30	11672,90
861,74	11005,30
862,17	11232,80
862,61	11480,70
863,05	11002,60
863,49	11081,20
863,93	11707,00
864,37	10950,60
864,80	11264,00
865,24	11238,80
865,68	10696,10
866,12	11242,60
866,56	10551,80
867,00	11726,90
867,43	10814,30
867,87	11481,00
868,31	11164,70
868,75	11033,40
869,19	11498,10
869,62	11293,80
870,06	12258,50
870,50	12814,50
870,94	10671,30
871,38	11189,20
871,81	11266,50
872,25	10880,50
872,69	11397,20
873,13	11602,40
873,56	11223,10
874,00	11917,40
874,44	11767,00
874,88	11173,30
875,31	10788,90
875,75	11938,30
876,19	10474,80
876,63	11556,10
877,06	11233,90
877,50	11235,20
877,94	11301,80
878,38	11291,60
878,81	11429,00
879,25	11174,80
879,69	12307,10
880,13	10871,00
880,56	10739,70
881,00	11083,00
881,44	11340,10
881,87	11729,10
882,31	11155,40
882,75	11178,70
883,19	11111,80
883,62	11119,10
884,06	10774,00
884,50	11597,10
884,93	11303,30
885,37	11591,90
885,81	11778,10
886,24	11101,00
886,68	10947,90
887,12	12332,20
887,55	10852,60
887,99	10819,40
888,43	11155,80
888,86	11024,70
889,30	13069,00
889,74	10661,10
890,17	11728,90
890,61	10967,40
891,05	11608,10
891,48	11573,90
891,92	10626,90
892,36	10950,60
892,79	11132,10
893,23	10771,90
893,67	11089,10
894,10	11497,00
894,54	11145,10
894,97	11696,00
895,41	11104,90
895,85	10853,10
896,28	11365,20
896,72	11463,30
897,16	10895,80
897,59	10688,60
898,03	10858,20
898,46	11451,70
898,90	11927,80
899,34	10882,10
899,77	10893,10
900,21	10957,30
900,64	11840,30
901,08	11500,70
901,51	11083,20
901,95	12361,60
902,39	12490,00
902,82	10921,90
903,26	11086,80
903,69	12305,00
904,13	10888,50
904,56	11504,80
905,00	10967,50
905,43	11055,20
905,87	10678,50
906,31	11950,00
906,74	11299,30
907,18	11846,80
907,61	11434,70
908,05	11174,80
908,48	11620,90
908,92	12185,20
909,35	11178,60
909,79	10681,00
910,22	11477,80
910,66	11567,40
911,09	11105,10
911,53	10886,20
911,96	11084,20
912,40	11400,70
912,83	11090,10
913,27	11544,10
913,70	11462,90
914,14	11202,70
914,57	10686,30
915,01	10755,90
915,44	11084,40
915,88	10918,60
916,31	11733,90
916,75	11021,40
917,18	11861,30
917,62	11019,40
918,05	11778,30
918,49	10914,40
918,92	11208,70
919,35	11140,60
919,79	11585,50
920,22	11668,80
920,66	11224,90
921,09	12230,90
921,53	11537,40
921,96	11056,30
922,40	10775,30
922,83	10790,90
923,26	11369,00
923,70	12215,10
924,13	11632,40
924,57	10552,30
925,00	11567,70
925,44	10832,50
925,87	11726,30
926,30	12626,60
926,74	11131,40
927,17	11618,10
927,61	10670,30
928,04	12595,50
928,47	11269,50
928,91	10749,00
929,34	11800,50
929,77	11001,50
930,21	11441,80
930,64	11732,50
931,08	10868,90
931,51	11554,00
931,94	10520,90
932,38	12312,00
932,81	11803,70
933,24	12955,40
933,68	11215,60
934,11	11866,90
934,54	11814,20
934,98	11719,70
935,41	11440,40
935,84	10730,10
936,28	11128,70
936,71	10909,00
937,14	11490,30
937,58	10834,80
938,01	11604,80
938,44	11029,90
938,88	11124,80
939,31	11645,90
939,74	10795,80
940,18	11303,00
940,61	11832,90
941,04	12552,40
941,48	11014,80
941,91	11948,70
942,34	10848,90
942,77	11034,40
943,21	11675,30
943,64	10706,00
944,07	10602,80
944,51	11666,50
944,94	11577,30
945,37	11586,30
945,80	11303,10
946,24	11412,80
946,67	11422,80
947,10	12013,80
947,53	11160,40
947,97	11322,00
948,40	11598,30
948,83	10606,40
949,26	10703,70
949,70	10773,50
950,13	12831,10
950,56	12021,60
950,99	11089,30
951,43	11044,20
951,86	11532,00
952,29	10657,70
952,72	11770,00
953,15	11050,10
953,59	12405,40
954,02	10686,50
954,45	10971,50
954,88	11067,80
955,31	10968,00
955,75	11081,10
956,18	11560,20
956,61	10804,80
957,04	11584,20
957,47	13029,30
957,91	10733,80
958,34	11559,10
958,77	11395,70
959,20	11054,20
959,63	11000,00
960,06	10934,10
960,50	10408,80
960,93	11074,80
961,36	11633,00
961,79	11594,90
962,22	11810,70
962,65	11664,30
963,09	10940,10
963,52	11377,40
963,95	11064,70
964,38	11303,90
964,81	11166,20
965,24	10962,60
965,67	11804,90
966,10	11007,70
966,54	11213,20
966,97	11607,30
967,40	10939,80
967,83	11011,70
968,26	11911,60
968,69	13804,70
969,12	11690,30
969,55	11222,90
969,98	11561,50
970,42	10804,40
970,85	10986,80
971,28	11521,10
971,71	11041,70
972,14	11270,10
972,57	10707,00
973,00	10918,60
973,43	11029,00
973,86	11560,10
974,29	11096,50
974,72	11703,40
975,15	11448,40
975,58	10930,20
976,01	10955,20
976,45	10857,20
976,88	11378,10
977,31	10778,50
977,74	11639,90
978,17	11298,00
978,60	11091,90
979,03	11104,80
979,46	11101,10
979,89	11773,90
980,32	11610,10
980,75	10940,00
981,18	11409,40
981,61	11835,10
982,04	11229,20
982,47	11233,90
982,90	11011,40
983,33	11099,80
983,76	10883,70
984,19	11789,00
984,62	11671,60
985,05	10800,30
985,48	10450,30
985,91	11133,40
986,34	11731,90
986,77	11079,20
987,20	10827,40
987,63	11425,50
988,06	11216,80
988,49	11357,00
988,92	11179,70
989,35	11389,50
989,78	11229,00
990,20	11064,10
990,63	11450,90
991,06	11229,00
991,49	11410,70
991,92	12282,00
992,35	11033,50
992,78	10810,90
993,21	11174,30
993,64	10925,60
994,07	10995,10
994,50	11515,20
994,93	11648,10
995,36	11385,60
995,79	11314,10
996,21	10577,40
996,64	10738,30
997,07	10350,00
997,50	11836,30
997,93	11628,30
998,36	11037,70
998,79	11318,50
999,22	10740,90
999,65	12097,50
1000,07	11191,30
1000,50	11335,90
1000,93	11984,00
1001,36	10841,30
1001,79	11389,70
1002,22	11566,40
1002,65	11227,90
1003,08	11446,20
1003,50	11201,00
1003,93	11564,40
1004,36	10743,20
1004,79	11485,90
1005,22	11294,70
1005,65	12014,30
1006,07	11086,80
1006,50	10681,50
1006,93	11488,90
1007,36	11236,90
1007,79	10923,20
1008,22	10646,40
1008,64	11156,40
1009,07	10977,90
1009,50	13515,10
1009,93	11881,50
1010,36	11731,30
1010,78	11440,40
1011,21	11567,70
1011,64	11822,80
1012,07	11153,20
1012,50	11601,70
1012,92	11250,60
1013,35	11471,80
1013,78	11472,40
1014,21	10803,70
1014,64	12070,70
1015,06	10592,00
1015,49	11766,80
1015,92	10890,40
1016,35	11319,20
1016,77	10796,50
1017,20	11590,10
1017,63	11054,30
1018,06	21355,60
1018,48	11021,60
1018,91	10553,40
1019,34	13020,10
1019,77	11944,10
1020,19	11653,80
1020,62	11078,30
1021,05	11203,40
1021,47	11441,10
1021,90	11406,40
1022,33	11597,70
1022,76	11284,40
1023,18	13538,40
1023,61	11936,10
1024,04	11784,20
1024,46	11632,90
1024,89	11394,60
1025,32	11503,70
1025,75	11787,70
1026,17	10912,90
1026,60	10844,20
1027,03	12751,00
1027,45	11636,00
1027,88	11532,80
1028,31	11339,20
1028,73	11397,20
1029,16	10936,40
1029,59	12672,70
1030,01	11361,60
1030,44	11311,90
1030,87	11441,60
1031,29	12100,60
1031,72	10687,20
1032,15	11453,90
1032,57	11720,20
1033,00	11130,40
1033,42	11854,30
1033,85	10898,50
1034,28	10881,30
1034,70	11514,70
1035,13	11784,80
1035,56	11119,30
1035,98	12389,10
1036,41	11012,50
1036,83	11153,00
1037,26	11408,20
1037,69	10634,20
1038,11	11767,40
1038,54	11883,70
1038,96	11691,80
1039,39	11946,40
1039,82	12260,50
1040,24	11198,10
1040,67	11161,90
1041,09	11534,70
1041,52	11125,20
1041,95	12238,30
1042,37	12070,60
1042,80	11660,40
1043,22	11921,00
1043,65	11353,40
1044,07	11820,60
1044,50	10878,50
1044,92	11184,80
1045,35	11184,10
1045,78	10738,10
1046,20	11360,40
1046,63	11693,90
1047,05	10928,50
1047,48	11594,20
1047,90	11817,70
1048,33	10944,80
1048,75	11909,40
1049,18	11719,00
1049,60	11793,00
1050,03	11178,50
1050,45	11242,90
1050,88	11628,30
1051,30	11887,70
1051,73	12432,80
1052,15	12004,60
1052,58	11452,00
1053,00	11694,10
1053,43	10359,80
1053,85	11406,00
1054,28	10500,70
1054,70	11195,70
1055,13	10967,00
1055,55	11523,60
1055,98	11658,80
1056,40	12535,10
1056,83	11975,50
1057,25	11984,60
1057,68	11393,70
1058,10	13745,30
1058,52	11022,80
1058,95	11643,30
1059,37	11672,20
1059,80	11171,10
1060,22	11217,40
1060,65	11078,30
1061,07	11894,70
1061,50	11443,80
1061,92	11156,40
1062,34	11827,70
1062,77	12130,60
1063,19	11527,80
1063,62	11275,50
1064,04	11053,50
1064,46	11810,10
1064,89	11886,90
1065,31	11140,70
1065,74	10879,70
1066,16	10698,90
1066,58	11822,60
1067,01	11348,90
1067,43	11328,60
1067,86	11490,80
1068,28	11124,40
1068,70	12442,10
1069,13	11409,60
1069,55	11128,90
1069,97	10724,30
1070,40	11919,30
1070,82	11973,90
1071,25	11896,40
1071,67	11204,70
1072,09	11686,40
1072,52	11133,20
1072,94	10825,10
1073,36	10693,20
1073,79	11793,80
1074,21	11125,00
1074,63	10709,50
1075,06	11098,10
1075,48	11092,90
1075,90	11427,40
1076,33	11033,90
1076,75	10950,80
1077,17	11222,00
1077,59	11851,90
1078,02	11132,90
1078,44	11813,60
1078,86	12233,80
1079,29	10408,60
1079,71	11469,10
1080,13	11136,60
1080,56	11284,70
1080,98	11748,40
1081,40	11354,80
1081,82	11151,10
1082,25	11546,70
1082,67	11300,40
1083,09	11242,00
1083,51	11344,10
1083,94	11360,40
1084,36	11921,70
1084,78	11325,70
1085,21	11174,00
1085,63	12064,30
1086,05	10930,80
1086,47	11153,80
1086,89	11557,00
1087,32	10605,10
1087,74	11733,40
1088,16	24208,90
1088,58	11544,50
1089,01	11001,00
1089,43	11061,40
1089,85	11134,90
1090,27	12037,20
1090,69	11302,20
1091,12	10890,00
1091,54	11135,70
1091,96	11207,50
1092,38	10939,80
1092,80	11322,00
1093,23	11070,70
1093,65	11288,90
1094,07	11186,80
1094,49	11301,50
1094,91	11176,90
1095,34	11289,70
1095,76	11006,50
1096,18	11296,30
1096,60	11496,10
1097,02	10762,10
1097,44	11259,30
1097,87	10982,40
1098,29	11632,70
1098,71	11605,20
1099,13	11517,40
1099,55	11219,70
1099,97	11111,90
1100,39	10929,20
1100,82	11113,20
1101,24	11057,30
1101,66	11273,20
1102,08	10755,80
1102,50	10948,00
1102,92	11145,20
1103,34	11230,90
1103,76	11447,90
1104,19	16332,70
1104,61	12016,30
1105,03	10267,10
1105,45	11323,00
1105,87	11154,40
1106,29	10870,40
1106,71	11152,20
1107,13	10302,60
1107,55	10584,20
1107,97	11742,20
1108,39	10478,40
1108,82	11439,60
1109,24	11387,70
1109,66	11381,10
1110,08	10396,80
1110,50	10961,50
1110,92	10418,40
1111,34	10853,10
1111,76	10472,90
1112,18	10579,20
1112,60	10309,10
1113,02	10881,00
1113,44	10604,40
1113,86	10507,50
1114,28	11047,00
1114,70	11236,40
1115,12	10715,60
1115,54	10949,20
1115,96	10722,40
1116,38	11226,50
1116,80	11071,50
1117,22	10650,00
1117,64	10322,50
1118,06	2015,30
1118,48	2214,40
1118,90	2197,50
1119,32	2199,30
>>>>>End Processed Spectral Data<<<<<
