SpectraSuite Data File
++++++++++++++++++++++++++++++++++++
Date: Thu Mar 13 12:29:28 EET 2014
User: OO Maya
Dark Spectrum Present: No
Reference Spectrum Present: No
Number of Sampled Component Spectra: 1
Spectrometers: MAYP11278
Integration Time (usec): 6000000 (MAYP11278)
Spectra Averaged: 10 (MAYP11278)
Boxcar Smoothing: 0 (MAYP11278)
Correct for Electrical Dark: No (MAYP11278)
Strobe/Lamp Enabled: No (MAYP11278)
Correct for Detector Non-linearity: No (MAYP11278)
Correct for Stray Light: No (MAYP11278)
Number of Pixels in Processed Spectrum: 2068
>>>>>Begin Processed Spectral Data<<<<<
188,22	2310,30
188,70	2226,10
189,18	2196,70
189,66	2197,60
190,13	12209,80
190,61	12948,80
191,09	13165,10
191,57	13140,30
192,05	13898,80
192,53	13198,60
193,00	12865,50
193,48	12466,00
193,96	13119,20
194,44	12964,60
194,92	13345,10
195,40	12966,20
195,87	13746,60
196,35	12952,60
196,83	13130,10
197,31	14885,40
197,79	13252,00
198,26	12644,60
198,74	12940,70
199,22	12726,80
199,70	13418,50
200,18	13713,30
200,65	12967,50
201,13	13079,40
201,61	13714,70
202,09	13611,90
202,56	13655,70
203,04	12613,20
203,52	13509,50
204,00	12784,50
204,47	13810,90
204,95	14126,50
205,43	12944,10
205,91	12939,20
206,39	14226,30
206,86	13200,30
207,34	13596,00
207,82	15121,20
208,30	13371,10
208,77	13759,90
209,25	13158,80
209,73	13947,50
210,20	13734,30
210,68	13302,30
211,16	13262,40
211,64	13627,50
212,11	13335,80
212,59	12943,20
213,07	14616,10
213,55	13744,90
214,02	12907,90
214,50	14514,20
214,98	13617,90
215,45	14325,70
215,93	13615,00
216,41	13820,30
216,89	13875,00
217,36	13825,60
217,84	12995,30
218,32	13280,00
218,79	14306,40
219,27	12610,30
219,75	13011,40
220,22	13077,00
220,70	13379,70
221,18	14965,60
221,65	13098,10
222,13	14063,40
222,61	13078,50
223,08	14085,00
223,56	13243,70
224,04	14084,10
224,51	13342,80
224,99	13168,00
225,47	12927,00
225,94	13338,50
226,42	13008,50
226,90	13543,80
227,37	14218,40
227,85	13343,70
228,33	13788,60
228,80	13918,50
229,28	13810,20
229,76	13335,00
230,23	13483,40
230,71	13226,10
231,18	13949,20
231,66	13976,80
232,14	13577,10
232,61	13649,20
233,09	13014,00
233,57	13594,30
234,04	13706,70
234,52	15830,70
234,99	13721,00
235,47	13099,50
235,95	12952,40
236,42	12730,90
236,90	14079,80
237,37	14990,60
237,85	13202,20
238,33	13643,40
238,80	13606,30
239,28	13668,40
239,75	13479,50
240,23	12807,00
240,70	13919,00
241,18	14377,30
241,66	13644,00
242,13	13373,00
242,61	14073,20
243,08	14263,40
243,56	12878,10
244,03	13061,70
244,51	13997,40
244,99	14430,60
245,46	13343,00
245,94	14339,50
246,41	14310,00
246,89	13182,10
247,36	13579,30
247,84	13573,30
248,31	13689,20
248,79	13888,90
249,26	12608,80
249,74	13664,90
250,22	14043,80
250,69	13733,90
251,17	14498,70
251,64	13603,20
252,12	14874,30
252,59	14453,70
253,07	13369,50
253,54	14417,50
254,02	13628,20
254,49	13529,80
254,97	13787,20
255,44	13740,30
255,92	14160,10
256,39	13338,90
256,87	13781,70
257,34	13973,20
257,82	14254,90
258,29	15602,70
258,77	13696,70
259,24	13291,70
259,72	13810,00
260,19	13989,80
260,67	14744,00
261,14	13516,10
261,61	13442,00
262,09	14282,20
262,56	13106,10
263,04	13765,10
263,51	13544,60
263,99	12887,60
264,46	14238,00
264,94	14348,50
265,41	13380,80
265,89	13777,00
266,36	13858,70
266,83	14085,20
267,31	13534,50
267,78	13534,30
268,26	13755,80
268,73	13933,80
269,21	12702,20
269,68	13154,70
270,15	13238,90
270,63	14017,80
271,10	14364,00
271,58	13407,80
272,05	13709,60
272,53	12921,50
273,00	12902,30
273,47	12477,30
273,95	13617,00
274,42	15992,10
274,90	14132,30
275,37	14177,40
275,84	13283,70
276,32	13493,90
276,79	13910,60
277,26	14156,00
277,74	12974,60
278,21	13575,00
278,69	13039,40
279,16	16371,10
279,63	13407,10
280,11	13333,50
280,58	16131,10
281,05	14218,30
281,53	15789,60
282,00	13243,00
282,48	14310,90
282,95	13417,10
283,42	13494,40
283,90	13946,00
284,37	13038,50
284,84	12989,70
285,32	14135,80
285,79	13634,50
286,26	13821,60
286,74	13799,30
287,21	12804,40
287,68	13912,50
288,16	14698,80
288,63	13528,50
289,10	14068,20
289,58	12544,60
290,05	14618,80
290,52	13147,80
291,00	13856,70
291,47	13239,80
291,94	13933,30
292,41	15216,40
292,89	13155,40
293,36	14350,40
293,83	13335,20
294,31	13999,20
294,78	13919,20
295,25	13251,10
295,73	13619,30
296,20	13811,60
296,67	14924,00
297,14	14736,60
297,62	14042,30
298,09	13988,00
298,56	13946,10
299,03	13375,60
299,51	14695,60
299,98	13577,20
300,45	13971,80
300,92	13344,60
301,40	14315,70
301,87	14273,00
302,34	14225,90
302,82	13130,40
303,29	14202,70
303,76	14321,20
304,23	13215,50
304,70	13343,30
305,18	13199,40
305,65	13817,30
306,12	13903,60
306,59	13945,70
307,07	14045,00
307,54	13385,70
308,01	13411,50
308,48	13918,30
308,95	13439,50
309,43	14284,50
309,90	14327,00
310,37	13900,20
310,84	13742,80
311,32	13960,30
311,79	13312,80
312,26	14396,20
312,73	13643,30
313,20	14865,70
313,68	13329,20
314,15	13521,90
314,62	13844,90
315,09	13459,80
315,56	13311,80
316,03	14295,70
316,51	14051,10
316,98	13853,10
317,45	14130,20
317,92	13811,20
318,39	15721,00
318,86	13752,80
319,34	13615,50
319,81	12912,70
320,28	13982,90
320,75	14987,00
321,22	14204,80
321,69	13479,30
322,16	12702,20
322,64	13128,90
323,11	14853,10
323,58	13580,40
324,05	15387,10
324,52	12902,80
324,99	13856,00
325,46	13681,50
325,94	13539,60
326,41	13557,10
326,88	13544,00
327,35	14212,10
327,82	13966,00
328,29	14047,70
328,76	13833,80
329,23	13565,20
329,70	13409,20
330,18	13500,80
330,65	13206,80
331,12	14331,50
331,59	14086,70
332,06	14859,60
332,53	13221,70
333,00	15036,00
333,47	14205,00
333,94	14122,10
334,41	14581,30
334,88	13912,30
335,35	14100,50
335,83	16167,60
336,30	13040,20
336,77	13603,40
337,24	13438,10
337,71	13943,60
338,18	13463,10
338,65	13501,10
339,12	14762,10
339,59	14296,60
340,06	13005,80
340,53	13286,70
341,00	13091,90
341,47	14037,90
341,94	14336,70
342,41	13390,20
342,88	13851,80
343,35	14194,90
343,82	13856,30
344,29	13440,90
344,76	13735,80
345,23	13206,40
345,70	13666,80
346,17	14079,20
346,64	13354,10
347,11	13323,20
347,58	14782,20
348,05	13349,80
348,52	14486,30
348,99	13809,20
349,46	12901,90
349,93	13784,60
350,40	14239,20
350,87	13739,00
351,34	13126,10
351,81	13851,40
352,28	14961,20
352,75	13882,20
353,22	13602,40
353,69	13833,50
354,16	14113,30
354,63	13938,20
355,10	14103,70
355,57	13884,30
356,04	14820,10
356,51	13293,40
356,98	14873,30
357,45	13193,30
357,92	15284,90
358,39	14141,00
358,86	13147,60
359,33	13130,40
359,80	13428,70
360,27	13391,20
360,74	14293,00
361,20	14708,30
361,67	13508,40
362,14	13573,40
362,61	13777,30
363,08	13580,00
363,55	13671,50
364,02	15408,50
364,49	14149,30
364,96	13318,60
365,43	14139,00
365,90	13372,70
366,37	13026,70
366,83	13834,50
367,30	13719,80
367,77	23647,90
368,24	12576,90
368,71	13172,00
369,18	14259,10
369,65	13043,40
370,12	14273,40
370,59	13887,40
371,05	13400,30
371,52	13374,90
371,99	14007,90
372,46	13235,70
372,93	12842,80
373,40	13358,00
373,87	13695,20
374,33	12971,70
374,80	13182,10
375,27	13775,90
375,74	12750,70
376,21	14681,10
376,68	13425,50
377,15	13022,00
377,61	12973,40
378,08	13976,60
378,55	13819,70
379,02	13692,30
379,49	13644,10
379,96	13652,90
380,42	14062,40
380,89	14736,90
381,36	13769,00
381,83	14696,00
382,30	14698,20
382,76	12883,50
383,23	13906,50
383,70	13397,50
384,17	14286,50
384,64	13717,00
385,10	17209,80
385,57	13671,00
386,04	13352,20
386,51	13481,70
386,98	14855,20
387,44	13123,20
387,91	12882,60
388,38	14306,60
388,85	13882,70
389,31	14472,70
389,78	13237,00
390,25	14048,20
390,72	13791,00
391,19	14063,50
391,65	13861,10
392,12	13802,90
392,59	13906,60
393,06	13521,80
393,52	13496,80
393,99	15361,10
394,46	13595,80
394,93	14442,10
395,39	13281,90
395,86	14159,70
396,33	17028,90
396,80	12954,30
397,26	14054,60
397,73	14295,40
398,20	13003,60
398,66	13671,40
399,13	13358,40
399,60	13092,10
400,07	14440,20
400,53	12967,90
401,00	13628,40
401,47	13371,10
401,93	13956,20
402,40	13769,90
402,87	13708,40
403,34	13122,10
403,80	14707,00
404,27	13470,20
404,74	14512,30
405,20	14898,40
405,67	14611,10
406,14	13138,40
406,60	14266,80
407,07	14045,40
407,54	15163,80
408,00	13628,40
408,47	13795,60
408,94	14088,10
409,40	12975,40
409,87	14436,50
410,34	13067,90
410,80	14466,50
411,27	13252,70
411,74	14516,70
412,20	13433,50
412,67	12625,30
413,14	14036,40
413,60	13444,20
414,07	13913,00
414,53	14081,60
415,00	14850,40
415,47	13593,30
415,93	14783,50
416,40	13826,40
416,87	13821,70
417,33	14954,90
417,80	13970,00
418,26	13531,70
418,73	13769,00
419,20	13712,70
419,66	14276,70
420,13	13265,30
420,59	14200,40
421,06	13008,90
421,53	13614,00
421,99	13288,30
422,46	13956,10
422,92	13327,10
423,39	13558,10
423,86	13951,70
424,32	14250,00
424,79	13655,20
425,25	14341,40
425,72	13634,30
426,18	14642,70
426,65	13454,10
427,11	14530,70
427,58	14175,10
428,05	14325,10
428,51	13031,70
428,98	14378,30
429,44	13993,40
429,91	13707,10
430,37	13892,90
430,84	15949,20
431,30	12945,40
431,77	13540,90
432,23	14784,70
432,70	14315,90
433,17	13582,40
433,63	13290,00
434,10	13581,30
434,56	13472,80
435,03	14104,10
435,49	12994,40
435,96	14138,60
436,42	13766,10
436,89	12917,10
437,35	14178,10
437,82	13945,80
438,28	13818,70
438,75	13252,60
439,21	13502,40
439,68	16410,60
440,14	13886,30
440,61	14275,40
441,07	14516,00
441,54	13197,10
442,00	13487,60
442,47	15461,00
442,93	13042,50
443,39	13783,20
443,86	13817,70
444,32	12879,30
444,79	14788,10
445,25	14094,70
445,72	13821,10
446,18	13610,80
446,65	13975,70
447,11	13604,30
447,58	13762,70
448,04	13372,60
448,50	13203,60
448,97	14034,20
449,43	14118,70
449,90	13557,70
450,36	13192,40
450,83	13035,10
451,29	13255,60
451,75	13890,00
452,22	14184,20
452,68	13154,10
453,15	14425,10
453,61	13632,30
454,08	13607,70
454,54	13661,60
455,00	13925,20
455,47	13334,20
455,93	13787,90
456,40	14248,80
456,86	13333,90
457,32	14667,60
457,79	13574,60
458,25	13630,70
458,71	12949,80
459,18	13875,30
459,64	13574,60
460,11	13823,50
460,57	13343,80
461,03	13029,80
461,50	14677,10
461,96	14326,30
462,42	13198,30
462,89	12917,90
463,35	14440,80
463,81	13528,20
464,28	13784,80
464,74	13810,90
465,21	13080,90
465,67	13336,70
466,13	14359,10
466,60	13635,00
467,06	14028,60
467,52	14024,90
467,99	13568,70
468,45	13872,80
468,91	13917,70
469,37	13566,40
469,84	13137,40
470,30	13975,00
470,76	13783,90
471,23	13352,50
471,69	13534,90
472,15	13187,20
472,62	13377,90
473,08	13540,40
473,54	14634,80
474,01	13575,20
474,47	13183,60
474,93	13583,80
475,39	12997,50
475,86	13845,80
476,32	13685,30
476,78	13904,40
477,25	13552,40
477,71	13762,00
478,17	14703,40
478,63	13822,30
479,10	14358,10
479,56	13226,30
480,02	14917,90
480,48	14048,70
480,95	13867,10
481,41	13421,50
481,87	13666,90
482,33	13796,30
482,80	13059,90
483,26	13469,80
483,72	12881,80
484,18	13486,50
484,65	14759,70
485,11	13903,40
485,57	13672,40
486,03	12711,60
486,49	13510,30
486,96	12734,00
487,42	13994,80
487,88	12894,50
488,34	12868,30
488,80	13221,00
489,27	13812,50
489,73	13721,20
490,19	14335,30
490,65	12923,10
491,11	13721,30
491,58	12858,40
492,04	13310,40
492,50	12665,80
492,96	14411,20
493,42	13757,20
493,89	13692,20
494,35	13055,00
494,81	13421,90
495,27	13240,40
495,73	13102,50
496,19	13704,50
496,66	13348,00
497,12	13512,40
497,58	14886,80
498,04	14368,40
498,50	13211,80
498,96	13730,60
499,43	13431,40
499,89	15412,60
500,35	13688,30
500,81	13242,50
501,27	13524,20
501,73	13393,60
502,19	14106,60
502,65	13621,60
503,12	13655,60
503,58	13603,50
504,04	13892,70
504,50	13252,50
504,96	13957,60
505,42	13884,30
505,88	13132,50
506,34	13670,90
506,80	14241,40
507,27	13594,50
507,73	13981,50
508,19	13881,20
508,65	13259,00
509,11	13181,60
509,57	12719,40
510,03	13408,80
510,49	13546,40
510,95	13197,30
511,41	14477,30
511,87	14470,50
512,33	13189,60
512,80	12711,90
513,26	13237,00
513,72	13889,50
514,18	12510,30
514,64	14182,00
515,10	15007,60
515,56	12752,40
516,02	13730,70
516,48	14314,90
516,94	14220,90
517,40	15316,40
517,86	13867,80
518,32	13602,60
518,78	16215,10
519,24	13526,90
519,70	13191,70
520,16	12940,60
520,62	13167,10
521,08	13711,10
521,54	14011,00
522,00	14114,00
522,46	13621,40
522,92	12954,80
523,38	14850,50
523,84	14245,80
524,30	13347,10
524,76	14697,40
525,22	14072,00
525,68	13978,20
526,14	14553,50
526,60	13855,30
527,06	13701,90
527,52	13309,90
527,98	13531,60
528,44	14151,90
528,90	14000,30
529,36	13464,80
529,82	13076,00
530,28	14005,60
530,74	14079,00
531,20	12787,10
531,66	14426,20
532,12	13571,30
532,58	13611,20
533,04	13652,70
533,50	14045,10
533,96	13492,70
534,42	12969,60
534,88	13473,00
535,33	13308,60
535,79	13766,60
536,25	13328,80
536,71	13923,90
537,17	13033,60
537,63	13993,40
538,09	13573,50
538,55	13613,10
539,01	14769,90
539,47	14064,20
539,93	17542,50
540,39	12785,70
540,84	14856,90
541,30	13744,00
541,76	12976,00
542,22	13984,90
542,68	13932,80
543,14	13331,30
543,60	15580,00
544,06	12934,60
544,52	14961,80
544,97	14053,40
545,43	13401,70
545,89	13396,90
546,35	14238,80
546,81	13640,30
547,27	13880,90
547,73	14169,70
548,19	13843,90
548,64	13513,70
549,10	13400,50
549,56	13150,20
550,02	15260,90
550,48	13425,10
550,94	12893,50
551,39	13910,90
551,85	13714,80
552,31	14911,60
552,77	13797,80
553,23	13049,50
553,69	13962,20
554,14	13465,80
554,60	13070,00
555,06	13853,70
555,52	13768,10
555,98	14942,60
556,43	13761,70
556,89	14529,30
557,35	12720,30
557,81	13850,30
558,27	15191,50
558,72	13307,20
559,18	13473,20
559,64	13143,90
560,10	13138,50
560,56	13043,10
561,01	13625,80
561,47	13524,10
561,93	13571,60
562,39	13179,90
562,85	13206,60
563,30	13637,90
563,76	14368,10
564,22	13079,70
564,68	13836,30
565,13	13384,50
565,59	13523,30
566,05	13779,40
566,51	14430,70
566,96	13461,50
567,42	13191,60
567,88	13661,80
568,34	14314,20
568,79	13250,60
569,25	13558,40
569,71	14064,40
570,16	13708,20
570,62	13634,40
571,08	14159,70
571,54	14076,00
571,99	13560,10
572,45	13739,40
572,91	13882,00
573,36	13270,50
573,82	13261,30
574,28	13632,70
574,74	14489,50
575,19	14200,50
575,65	12900,50
576,11	13806,20
576,56	12510,90
577,02	14436,30
577,48	13425,60
577,93	13432,50
578,39	12842,50
578,85	14577,70
579,30	13577,80
579,76	13253,70
580,22	13779,60
580,67	13816,10
581,13	13587,40
581,59	13633,30
582,04	13752,00
582,50	13482,50
582,96	12905,60
583,41	13561,80
583,87	13806,80
584,33	13546,90
584,78	14019,50
585,24	13277,80
585,69	15542,70
586,15	13460,60
586,61	13505,30
587,06	13525,60
587,52	13578,80
587,98	14334,80
588,43	12908,50
588,89	14019,80
589,34	13486,60
589,80	13151,50
590,26	13879,30
590,71	14162,40
591,17	13373,30
591,62	12820,60
592,08	14550,20
592,54	13267,60
592,99	13888,80
593,45	13526,10
593,90	14255,80
594,36	13637,60
594,81	13527,00
595,27	14525,10
595,73	13418,10
596,18	13072,60
596,64	14615,60
597,09	14138,40
597,55	14507,50
598,00	13816,20
598,46	12818,50
598,92	13639,20
599,37	14533,00
599,83	13165,90
600,28	14024,00
600,74	14393,30
601,19	13964,10
601,65	14146,90
602,10	12785,50
602,56	15854,20
603,01	13374,40
603,47	13669,60
603,92	12810,10
604,38	12737,70
604,83	14013,20
605,29	13382,40
605,74	13983,20
606,20	13717,80
606,65	12741,50
607,11	13646,20
607,56	13368,70
608,02	13690,40
608,47	14088,40
608,93	13625,10
609,38	15391,90
609,84	14217,70
610,29	13467,20
610,75	13318,50
611,20	13725,00
611,66	12906,40
612,11	14892,60
612,57	14076,30
613,02	13722,10
613,48	15870,00
613,93	12922,50
614,39	12926,60
614,84	12884,30
615,30	12870,90
615,75	13480,40
616,20	13590,70
616,66	13042,50
617,11	13459,80
617,57	13523,60
618,02	14130,90
618,48	13183,80
618,93	13455,70
619,38	13509,30
619,84	14112,10
620,29	13399,90
620,75	14111,50
621,20	14256,50
621,66	13573,40
622,11	14177,50
622,56	14555,60
623,02	14313,10
623,47	13184,50
623,93	13182,00
624,38	14338,00
624,83	12803,40
625,29	13529,70
625,74	13824,00
626,20	13035,10
626,65	13539,80
627,10	13781,50
627,56	12935,20
628,01	14040,80
628,46	14106,30
628,92	12567,10
629,37	13548,80
629,82	13742,20
630,28	13251,30
630,73	13948,40
631,19	13561,90
631,64	14127,40
632,09	13843,10
632,55	14375,30
633,00	13199,70
633,45	13400,90
633,91	13154,10
634,36	13214,60
634,81	13004,60
635,27	13360,40
635,72	13207,50
636,17	12758,30
636,63	13581,70
637,08	13547,90
637,53	13082,60
637,99	14056,60
638,44	14163,50
638,89	13248,60
639,34	13531,00
639,80	12976,20
640,25	12620,80
640,70	13804,40
641,16	14161,50
641,61	12761,80
642,06	13229,20
642,51	13415,40
642,97	12662,10
643,42	13226,40
643,87	14039,70
644,33	13229,30
644,78	12901,70
645,23	13318,60
645,68	12916,50
646,14	13498,10
646,59	13641,30
647,04	13871,80
647,49	14018,80
647,95	13644,60
648,40	13801,60
648,85	12900,50
649,30	14425,70
649,76	13876,20
650,21	16731,00
650,66	12993,70
651,11	13058,60
651,57	13130,60
652,02	13767,50
652,47	12946,50
652,92	13468,90
653,37	13314,00
653,83	13096,90
654,28	13537,00
654,73	13766,30
655,18	13345,10
655,63	12786,30
656,09	13982,70
656,54	13042,60
656,99	13533,90
657,44	14049,50
657,89	13992,20
658,35	13031,10
658,80	13664,70
659,25	12918,40
659,70	16697,20
660,15	13237,90
660,60	14290,00
661,06	13427,50
661,51	13004,20
661,96	13453,10
662,41	12967,50
662,86	12624,10
663,31	13862,90
663,77	13259,60
664,22	13228,00
664,67	13374,90
665,12	12879,50
665,57	13633,30
666,02	12782,90
666,47	13668,80
666,93	13536,70
667,38	15354,70
667,83	14449,30
668,28	13031,70
668,73	13716,80
669,18	12945,90
669,63	15169,20
670,08	12541,40
670,53	13055,70
670,99	14316,00
671,44	13550,10
671,89	14672,90
672,34	15261,00
672,79	13520,40
673,24	13550,50
673,69	14347,70
674,14	16013,70
674,59	13672,80
675,04	13738,50
675,49	12664,60
675,95	12855,50
676,40	13660,60
676,85	13343,40
677,30	13317,70
677,75	13373,70
678,20	15418,10
678,65	13142,90
679,10	13344,00
679,55	13684,00
680,00	13142,50
680,45	13459,90
680,90	13527,60
681,35	12353,90
681,80	12391,90
682,25	13287,10
682,70	13513,40
683,15	13924,50
683,60	13791,40
684,05	13704,90
684,50	14317,80
684,95	13847,00
685,40	13647,10
685,85	13782,00
686,30	13370,00
686,75	12979,80
687,20	13572,50
687,65	13100,40
688,10	13609,80
688,55	13444,60
689,00	15609,20
689,45	14012,10
689,90	12567,50
690,35	13297,50
690,80	13391,50
691,25	12634,50
691,70	13460,20
692,15	12656,40
692,60	13486,20
693,05	13314,50
693,50	13911,50
693,95	13891,10
694,40	13556,50
694,85	13703,70
695,30	16822,20
695,75	13601,50
696,20	13580,50
696,65	14885,00
697,10	13422,90
697,55	13189,00
698,00	13790,90
698,45	13041,60
698,90	14015,70
699,34	13982,00
699,79	13104,10
700,24	13310,00
700,69	13942,00
701,14	14097,20
701,59	16479,40
702,04	12712,20
702,49	14574,80
702,94	13072,40
703,39	13273,90
703,84	13682,10
704,28	13399,50
704,73	13237,70
705,18	14345,10
705,63	14236,00
706,08	14204,90
706,53	12864,90
706,98	13965,50
707,43	13581,50
707,87	13372,20
708,32	13833,80
708,77	14125,40
709,22	13633,80
709,67	13221,90
710,12	13440,70
710,57	13514,20
711,01	13118,60
711,46	13919,70
711,91	13609,40
712,36	13582,20
712,81	12965,00
713,26	15010,70
713,71	13516,20
714,15	13579,50
714,60	14556,10
715,05	14130,10
715,50	13364,90
715,95	13552,40
716,39	13257,80
716,84	13264,70
717,29	12795,10
717,74	12679,20
718,19	13849,40
718,63	14846,60
719,08	12917,70
719,53	12826,50
719,98	13560,70
720,43	13480,60
720,87	13092,00
721,32	13684,60
721,77	13243,50
722,22	13865,10
722,67	13393,30
723,11	12796,40
723,56	12661,40
724,01	13665,90
724,46	12494,40
724,90	13818,50
725,35	12518,10
725,80	13443,20
726,25	13379,00
726,69	13500,70
727,14	14876,10
727,59	12976,60
728,04	14532,50
728,48	13879,90
728,93	13240,90
729,38	14404,70
729,83	13090,60
730,27	14170,70
730,72	12874,60
731,17	13562,30
731,61	13840,10
732,06	13655,90
732,51	13736,70
732,96	13027,60
733,40	13961,40
733,85	13655,80
734,30	13090,90
734,74	14007,50
735,19	13962,30
735,64	13591,90
736,09	15534,90
736,53	12998,50
736,98	13506,40
737,43	14132,60
737,87	13933,70
738,32	13540,40
738,77	13331,10
739,21	13581,10
739,66	12690,90
740,11	14316,30
740,55	13692,00
741,00	12983,50
741,45	13751,30
741,89	13972,80
742,34	13473,60
742,79	13555,00
743,23	12944,60
743,68	13017,30
744,12	13443,00
744,57	14259,90
745,02	14177,90
745,46	13828,00
745,91	14109,20
746,36	14542,80
746,80	12224,60
747,25	12972,60
747,69	12678,60
748,14	13863,40
748,59	13411,50
749,03	13261,50
749,48	13771,80
749,92	15517,60
750,37	13533,80
750,82	13393,30
751,26	12773,70
751,71	13215,60
752,15	13197,50
752,60	13325,30
753,05	14977,60
753,49	13104,00
753,94	13287,90
754,38	12777,60
754,83	13202,30
755,27	12873,40
755,72	13355,40
756,17	13511,40
756,61	14289,20
757,06	13328,30
757,50	14370,50
757,95	13565,00
758,39	13354,30
758,84	13377,90
759,28	13374,30
759,73	12833,80
760,17	13340,00
760,62	13795,80
761,07	13377,90
761,51	14000,60
761,96	14396,70
762,40	13285,40
762,85	12753,60
763,29	13284,80
763,74	14068,10
764,18	13436,70
764,63	12812,60
765,07	13091,10
765,52	13741,90
765,96	12852,50
766,41	12803,70
766,85	13118,10
767,30	13478,90
767,74	13507,50
768,19	13727,10
768,63	13930,10
769,07	13356,10
769,52	14916,50
769,96	12897,90
770,41	13317,10
770,85	12997,20
771,30	12857,40
771,74	13820,10
772,19	13592,20
772,63	13689,60
773,08	12555,50
773,52	13260,40
773,97	13169,50
774,41	12396,00
774,85	13389,30
775,30	12928,00
775,74	13526,40
776,19	13433,10
776,63	12854,10
777,08	13294,00
777,52	13263,80
777,96	13673,00
778,41	13885,20
778,85	13248,00
779,30	13539,10
779,74	15544,00
780,18	14598,30
780,63	13479,70
781,07	14172,10
781,52	13791,90
781,96	12986,30
782,40	13673,80
782,85	12800,60
783,29	13192,60
783,74	13839,40
784,18	14053,50
784,62	13409,20
785,07	13288,30
785,51	13290,60
785,95	13009,60
786,40	13869,40
786,84	14228,40
787,28	14336,90
787,73	12847,40
788,17	13096,40
788,61	13608,30
789,06	13046,30
789,50	13262,20
789,94	13075,60
790,39	13555,40
790,83	12934,70
791,27	13025,50
791,72	14221,50
792,16	13211,80
792,60	13454,90
793,05	13197,50
793,49	16609,50
793,93	14298,40
794,38	13525,70
794,82	13608,70
795,26	13462,20
795,71	12894,40
796,15	13749,90
796,59	13370,20
797,03	13426,10
797,48	13141,40
797,92	12816,10
798,36	13414,50
798,81	14209,50
799,25	13635,70
799,69	12868,50
800,13	14714,80
800,58	13700,00
801,02	13088,90
801,46	13770,50
801,90	13585,00
802,35	12953,30
802,79	14202,20
803,23	14803,60
803,67	13952,40
804,12	13634,50
804,56	13417,20
805,00	13147,70
805,44	14864,40
805,89	15111,30
806,33	14831,60
806,77	14019,20
807,21	15053,00
807,66	13274,00
808,10	13574,20
808,54	12854,80
808,98	13813,00
809,42	13514,70
809,87	13073,20
810,31	12878,10
810,75	13791,90
811,19	14504,40
811,63	16143,80
812,08	13183,10
812,52	13066,80
812,96	13987,40
813,40	14840,70
813,84	14152,50
814,28	13619,10
814,73	14092,70
815,17	13910,80
815,61	13704,10
816,05	13170,90
816,49	12897,70
816,93	13157,70
817,38	14039,40
817,82	13508,30
818,26	14242,70
818,70	13159,60
819,14	13949,50
819,58	14304,90
820,03	13245,70
820,47	13803,40
820,91	13161,10
821,35	13494,40
821,79	13023,70
822,23	14597,00
822,67	12926,30
823,11	13602,10
823,55	13635,10
824,00	12862,50
824,44	13595,90
824,88	13440,90
825,32	13682,20
825,76	13760,00
826,20	12915,90
826,64	13265,40
827,08	12422,30
827,52	13492,70
827,96	14016,00
828,41	14401,90
828,85	13091,50
829,29	14101,80
829,73	13714,90
830,17	13080,50
830,61	14737,50
831,05	13188,20
831,49	15253,30
831,93	14221,00
832,37	13978,40
832,81	12798,40
833,25	13419,20
833,69	13400,90
834,13	14561,70
834,57	13979,60
835,01	13447,60
835,45	13124,80
835,89	14252,00
836,33	13393,50
836,77	13641,60
837,22	13425,70
837,66	14113,80
838,10	13097,10
838,54	13105,50
838,98	13623,70
839,42	13480,40
839,86	14667,80
840,30	15118,70
840,74	13671,50
841,18	14446,50
841,62	12451,50
842,06	13159,50
842,50	12681,10
842,94	13270,20
843,37	14046,60
843,81	13564,30
844,25	14039,20
844,69	13471,30
845,13	12994,90
845,57	13957,10
846,01	13308,40
846,45	13962,70
846,89	13109,10
847,33	13014,10
847,77	13518,10
848,21	13041,50
848,65	13370,70
849,09	13221,60
849,53	13939,20
849,97	14411,30
850,41	13996,00
850,85	13311,50
851,29	14091,90
851,73	12970,30
852,16	13729,40
852,60	14301,40
853,04	13195,00
853,48	13157,50
853,92	14031,40
854,36	12799,10
854,80	14112,40
855,24	12710,80
855,68	13101,10
856,12	14207,00
856,55	14676,70
856,99	13469,50
857,43	13698,40
857,87	13524,70
858,31	12825,20
858,75	14444,60
859,19	12534,60
859,63	12979,90
860,06	13216,00
860,50	13381,80
860,94	13611,50
861,38	13906,00
861,82	13158,50
862,26	13387,10
862,70	13684,60
863,13	13044,50
863,57	13163,90
864,01	13960,70
864,45	13028,40
864,89	13420,40
865,33	13441,10
865,76	12727,60
866,20	13414,50
866,64	12567,20
867,08	13905,40
867,52	12857,70
867,96	13691,40
868,39	13414,30
868,83	13142,20
869,27	13655,30
869,71	13483,10
870,15	14583,60
870,58	15367,60
871,02	12748,00
871,46	13311,40
871,90	13450,10
872,34	13004,30
872,77	13603,30
873,21	13822,00
873,65	13432,60
874,09	14242,30
874,52	14010,00
874,96	13236,40
875,40	12848,70
875,84	14297,10
876,27	12415,30
876,71	13754,40
877,15	13383,50
877,59	13396,70
878,02	13480,50
878,46	13372,70
878,90	13678,00
879,34	13212,50
879,77	14751,10
880,21	12972,30
880,65	12836,40
881,09	13247,40
881,52	13516,90
881,96	13974,20
882,40	13348,40
882,83	13313,70
883,27	13207,60
883,71	13310,20
884,14	12882,00
884,58	13854,30
885,02	13489,30
885,46	13771,00
885,89	14132,00
886,33	13232,40
886,77	13031,10
887,20	14799,40
887,64	12893,10
888,08	12918,10
888,51	13337,70
888,95	13158,90
889,39	15686,40
889,82	12629,80
890,26	14014,70
890,70	13068,30
891,13	13826,40
891,57	13840,70
892,01	12720,30
892,44	13091,10
892,88	13264,70
893,31	12808,50
893,75	13228,10
894,19	13663,10
894,62	13257,60
895,06	13977,20
895,50	13208,80
895,93	12937,40
896,37	13515,80
896,80	13796,20
897,24	12982,30
897,68	12809,40
898,11	12910,10
898,55	13626,30
898,98	14266,10
899,42	12968,60
899,86	12973,60
900,29	13058,70
900,73	14089,80
901,16	13828,00
901,60	13236,60
902,04	14816,50
902,47	14973,20
902,91	12922,90
903,34	13240,30
903,78	14770,50
904,21	12975,50
904,65	13778,60
905,09	13041,00
905,52	13182,70
905,96	12805,30
906,39	14255,20
906,83	13499,40
907,26	14050,70
907,70	13597,60
908,13	13264,30
908,57	13891,10
909,00	14586,70
909,44	13239,20
909,87	12741,90
910,31	13688,00
910,74	13708,80
911,18	13279,50
911,62	13030,00
912,05	13224,30
912,49	13569,50
912,92	13242,90
913,36	13798,00
913,79	13830,10
914,22	13348,80
914,66	12786,80
915,09	12811,90
915,53	13170,10
915,96	13041,10
916,40	14009,60
916,83	13142,70
917,27	14160,10
917,70	13137,70
918,14	14048,90
918,57	12988,50
919,01	13310,90
919,44	13283,10
919,88	13832,60
920,31	14086,50
920,75	13413,70
921,18	14644,10
921,61	13773,30
922,05	13211,80
922,48	12832,50
922,92	12783,20
923,35	13581,50
923,79	14546,30
924,22	13893,50
924,65	12568,40
925,09	13834,90
925,52	12828,20
925,96	14062,10
926,39	15040,10
926,82	13247,50
927,26	13871,60
927,69	12722,80
928,13	15124,90
928,56	13497,40
928,99	12756,60
929,43	14106,10
929,86	13195,40
930,30	13692,30
930,73	14062,50
931,16	13156,20
931,60	13807,70
932,03	12468,20
932,46	14697,30
932,90	14152,40
933,33	15503,60
933,76	13367,40
934,20	14162,60
934,63	14155,40
935,07	13933,10
935,50	13646,80
935,93	12782,70
936,37	13272,10
936,80	13020,80
937,23	13693,90
937,67	12878,30
938,10	13912,50
938,53	13151,20
938,96	13239,50
939,40	13931,80
939,83	12890,40
940,26	13433,70
940,70	14143,10
941,13	15026,40
941,56	13119,20
942,00	14251,90
942,43	12939,10
942,86	13225,90
943,29	13958,90
943,73	12786,40
944,16	12691,20
944,59	13932,20
945,03	13816,80
945,46	13904,10
945,89	13455,90
946,32	13653,10
946,76	13630,00
947,19	14420,00
947,62	13330,90
948,05	13464,30
948,49	13838,80
948,92	12682,20
949,35	12707,70
949,78	12783,10
950,22	15473,90
950,65	14338,80
951,08	13298,30
951,51	13138,40
951,95	13784,80
952,38	12650,10
952,81	14037,10
953,24	13131,50
953,67	14794,80
954,11	12738,00
954,54	13072,40
954,97	13195,40
955,40	13088,20
955,83	13253,20
956,27	13806,40
956,70	12910,00
957,13	13860,30
957,56	15581,70
957,99	12770,50
958,43	13773,10
958,86	13572,70
959,29	13192,80
959,72	13094,30
960,15	13101,40
960,58	12362,80
961,02	13179,70
961,45	13834,80
961,88	13744,10
962,31	14182,20
962,74	13945,00
963,17	12992,20
963,61	13454,80
964,04	13167,40
964,47	13572,40
964,90	13336,40
965,33	13049,60
965,76	14097,30
966,19	13140,00
966,62	13282,30
967,06	13879,10
967,49	13040,90
967,92	13091,30
968,35	14252,40
968,78	16512,70
969,21	13947,60
969,64	13367,20
970,07	13751,80
970,50	12922,90
970,93	13105,40
971,37	13775,30
971,80	13138,70
972,23	13417,30
972,66	12775,20
973,09	12962,40
973,52	13200,30
973,95	13761,30
974,38	13248,60
974,81	13849,70
975,24	13569,40
975,67	13033,00
976,10	13169,70
976,53	13040,70
976,96	13533,60
977,39	12849,60
977,82	13930,50
978,26	13471,20
978,69	13249,40
979,12	13245,90
979,55	13230,70
979,98	14096,90
980,41	13839,90
980,84	13053,40
981,27	13706,40
981,70	14198,20
982,13	13351,30
982,56	13391,10
982,99	13097,30
983,42	13259,70
983,85	12959,60
984,28	14119,40
984,71	13918,00
985,14	12721,20
985,57	12391,30
986,00	13353,50
986,43	13795,50
986,86	13256,00
987,29	12974,30
987,72	13716,80
988,15	13360,60
988,57	13502,00
989,00	13322,60
989,43	13599,80
989,86	13423,80
990,29	13262,80
990,72	13596,20
991,15	13379,80
991,58	13638,20
992,01	14730,50
992,44	13184,40
992,87	12914,00
993,30	13340,90
993,73	12948,20
994,16	13151,40
994,59	13759,40
995,02	13860,60
995,44	13567,90
995,87	13538,40
996,30	12564,00
996,73	12747,00
997,16	12323,50
997,59	14171,50
998,02	13986,90
998,45	13046,60
998,88	13569,10
999,31	12848,50
999,73	14599,60
1000,16	13412,20
1000,59	13470,20
1001,02	14278,70
1001,45	12899,20
1001,88	13470,00
1002,31	13850,80
1002,74	13407,20
1003,16	13569,30
1003,59	13396,80
1004,02	13783,10
1004,45	12821,00
1004,88	13708,70
1005,31	13494,80
1005,73	14458,50
1006,16	13229,00
1006,59	12679,60
1007,02	13703,90
1007,45	13373,70
1007,88	12984,40
1008,30	12687,50
1008,73	13285,10
1009,16	13119,30
1009,59	16111,90
1010,02	14228,20
1010,44	13982,00
1010,87	13648,10
1011,30	13853,60
1011,73	14116,00
1012,16	13304,70
1012,58	13940,80
1013,01	13415,90
1013,44	13687,80
1013,87	13769,60
1014,30	12828,10
1014,72	14391,30
1015,15	12593,50
1015,58	13927,60
1016,01	12996,10
1016,43	13477,60
1016,86	12810,30
1017,29	13734,90
1017,72	13219,00
1018,14	30267,10
1018,57	13064,80
1019,00	12565,70
1019,43	15564,60
1019,85	14278,20
1020,28	13874,10
1020,71	13231,10
1021,14	13442,90
1021,56	13589,30
1021,99	13664,50
1022,42	13871,70
1022,84	13412,60
1023,27	16226,70
1023,70	14289,90
1024,13	14263,40
1024,55	13917,00
1024,98	13593,80
1025,41	13748,60
1025,83	13965,10
1026,26	13038,20
1026,69	12948,00
1027,11	15123,40
1027,54	13977,40
1027,97	13769,80
1028,39	13520,90
1028,82	13616,80
1029,25	13044,30
1029,67	15210,20
1030,10	13604,20
1030,53	13497,30
1030,95	13644,30
1031,38	14486,80
1031,81	12751,50
1032,23	13592,30
1032,66	14036,30
1033,09	13147,70
1033,51	14139,80
1033,94	12961,30
1034,37	12995,90
1034,79	13738,60
1035,22	14129,90
1035,64	13215,80
1036,07	14606,50
1036,50	13104,00
1036,92	13104,90
1037,35	13624,50
1037,77	12642,90
1038,20	14010,90
1038,63	14170,00
1039,05	13991,10
1039,48	14265,00
1039,90	14746,60
1040,33	13347,60
1040,76	13350,50
1041,18	13731,00
1041,61	13253,90
1042,03	14439,70
1042,46	14420,30
1042,88	13912,50
1043,31	14192,60
1043,74	13549,70
1044,16	14203,50
1044,59	12935,30
1045,01	13408,00
1045,44	13233,40
1045,86	12856,20
1046,29	13539,30
1046,71	13880,60
1047,14	13059,10
1047,56	13814,60
1047,99	14107,90
1048,42	12952,40
1048,84	14224,40
1049,27	13951,30
1049,69	14072,10
1050,12	13369,90
1050,54	13403,20
1050,97	13878,90
1051,39	14246,60
1051,82	14451,40
1052,24	14311,80
1052,67	13680,70
1053,09	13839,20
1053,52	12265,00
1053,94	13592,70
1054,37	12590,00
1054,79	13360,00
1055,22	13094,60
1055,64	13825,70
1056,06	13968,00
1056,49	14961,60
1056,91	14281,90
1057,34	14309,20
1057,76	13573,20
1058,19	16425,80
1058,61	13057,70
1059,04	13872,90
1059,46	13969,00
1059,89	13285,80
1060,31	13363,10
1060,73	13277,60
1061,16	14168,30
1061,58	13638,20
1062,01	13284,10
1062,43	14181,90
1062,86	14480,80
1063,28	13725,30
1063,70	13447,40
1064,13	13164,10
1064,55	14118,10
1064,98	14173,10
1065,40	13310,30
1065,82	13050,70
1066,25	12738,60
1066,67	14204,70
1067,10	13535,20
1067,52	13513,00
1067,94	13795,20
1068,37	13258,80
1068,79	14940,30
1069,21	13473,80
1069,64	13240,50
1070,06	12719,90
1070,48	14179,10
1070,91	14313,30
1071,33	14213,20
1071,76	13338,60
1072,18	13986,40
1072,60	13319,00
1073,03	12942,90
1073,45	12697,00
1073,87	14024,10
1074,30	13258,60
1074,72	12841,10
1075,14	13227,30
1075,57	13308,90
1075,99	13622,90
1076,41	13173,00
1076,84	13057,40
1077,26	13488,40
1077,68	14136,60
1078,10	13240,70
1078,53	14034,30
1078,95	14573,70
1079,37	12405,30
1079,80	13680,10
1080,22	13201,00
1080,64	13401,70
1081,06	13856,70
1081,49	13477,30
1081,91	13280,30
1082,33	13768,40
1082,76	13427,30
1083,18	13343,30
1083,60	13517,10
1084,02	13612,50
1084,45	14250,40
1084,87	13498,90
1085,29	13307,40
1085,71	14279,50
1086,14	13021,30
1086,56	13294,90
1086,98	13722,40
1087,40	12557,10
1087,83	13939,10
1088,25	27471,40
1088,67	13846,50
1089,09	13095,60
1089,51	13207,10
1089,94	13280,00
1090,36	14224,80
1090,78	13410,30
1091,20	12819,70
1091,62	13296,90
1092,05	13342,80
1092,47	13039,50
1092,89	13431,20
1093,31	13185,50
1093,73	13445,20
1094,16	13291,00
1094,58	13509,70
1095,00	13374,60
1095,42	13517,40
1095,84	13110,70
1096,26	13548,90
1096,69	13760,90
1097,11	12795,40
1097,53	13396,00
1097,95	13066,00
1098,37	13861,20
1098,79	13867,60
1099,22	13768,00
1099,64	13352,00
1100,06	13196,20
1100,48	12961,00
1100,90	13293,40
1101,32	13167,00
1101,74	13497,20
1102,16	12813,10
1102,59	13033,60
1103,01	13282,10
1103,43	13368,00
1103,85	13580,60
1104,27	13113,90
1104,69	14569,20
1105,11	12198,40
1105,53	13558,90
1105,95	13200,00
1106,38	13027,90
1106,80	13397,90
1107,22	12218,90
1107,64	12588,10
1108,06	14022,40
1108,48	12582,50
1108,90	13639,90
1109,32	13542,70
1109,74	13583,30
1110,16	12397,40
1110,58	13027,10
1111,00	12469,90
1111,42	12933,50
1111,84	12461,50
1112,26	12598,50
1112,68	12337,40
1113,11	12820,90
1113,53	12596,40
1113,95	12571,90
1114,37	13188,40
1114,79	13359,60
1115,21	12816,60
1115,63	13008,90
1116,05	12763,30
1116,47	13313,10
1116,89	13030,60
1117,31	12868,60
1117,73	12035,80
1118,15	1982,80
1118,57	2217,10
1118,99	2197,50
1119,41	2198,00
>>>>>End Processed Spectral Data<<<<<
