SpectraSuite Data File
++++++++++++++++++++++++++++++++++++
Date: Wed Mar 12 09:40:57 EET 2014
User: OO Maya
Dark Spectrum Present: No
Reference Spectrum Present: No
Number of Sampled Component Spectra: 1
Spectrometers: MAYP11278
Integration Time (usec): 600000 (MAYP11278)
Spectra Averaged: 15 (MAYP11278)
Boxcar Smoothing: 0 (MAYP11278)
Correct for Electrical Dark: No (MAYP11278)
Strobe/Lamp Enabled: No (MAYP11278)
Correct for Detector Non-linearity: No (MAYP11278)
Correct for Stray Light: No (MAYP11278)
Number of Pixels in Processed Spectrum: 2068
>>>>>Begin Processed Spectral Data<<<<<
188,05	2302,33
188,53	2218,27
189,01	2189,80
189,49	2190,80
189,96	3052,93
190,44	3121,93
190,92	3114,20
191,40	3120,87
191,88	3182,73
192,36	3118,33
192,83	3086,73
193,31	3060,07
193,79	3115,87
194,27	3095,93
194,75	3140,20
195,23	3097,80
195,70	3173,33
196,18	3093,73
196,66	3122,33
197,14	3279,33
197,62	3112,93
198,09	3078,67
198,57	3094,40
199,05	3077,00
199,53	3146,27
200,01	3175,07
200,48	3100,80
200,96	3111,40
201,44	3170,33
201,92	3164,87
202,39	3164,40
202,87	3067,13
203,35	3153,93
203,83	3076,53
204,31	3175,80
204,78	3206,40
205,26	3107,87
205,74	3099,67
206,22	3206,87
206,69	3115,13
207,17	3157,73
207,65	3288,60
208,13	3131,93
208,60	3164,60
209,08	3120,27
209,56	3188,33
210,04	3171,13
210,51	3137,87
210,99	3129,87
211,47	3158,47
211,94	3130,40
212,42	3116,73
212,90	3245,47
213,38	3166,40
213,85	3116,80
214,33	3247,47
214,81	3146,53
215,29	3220,27
215,76	3156,13
216,24	3179,93
216,72	3176,67
217,19	3174,27
217,67	3106,53
218,15	3134,33
218,62	3212,20
219,10	3078,13
219,58	3107,27
220,05	3110,47
220,53	3140,80
221,01	3389,20
221,49	3113,00
221,96	3197,00
222,44	3115,93
222,92	3194,60
223,39	3128,40
223,87	3187,13
224,35	3141,67
224,82	3121,80
225,30	3098,60
225,78	3138,40
226,25	3104,20
226,73	3146,73
227,21	3211,47
227,68	3135,07
228,16	3171,93
228,63	3187,80
229,11	3181,13
229,59	3145,47
230,06	3151,60
230,54	3112,93
231,02	3189,33
231,49	3214,33
231,97	3150,47
232,45	3157,07
232,92	3103,53
233,40	3155,20
233,87	3176,60
234,35	3366,60
234,83	3176,20
235,30	3110,87
235,78	3128,80
236,25	3088,00
236,73	3210,60
237,21	3276,47
237,68	3126,73
238,16	3166,93
238,63	3159,13
239,11	3151,07
239,59	3144,13
240,06	3092,67
240,54	3187,33
241,01	3227,27
241,49	3163,80
241,96	3135,00
242,44	3201,33
242,92	3227,67
243,39	3095,13
243,87	3114,60
244,34	3200,27
244,82	3234,67
245,29	3135,20
245,77	3242,53
246,24	3220,07
246,72	3120,53
247,20	3148,40
247,67	3157,87
248,15	3163,93
248,62	3183,20
249,10	3069,07
249,57	3150,13
250,05	3204,40
250,52	3174,00
251,00	3240,00
251,47	3162,20
251,95	3270,93
252,42	3233,53
252,90	3130,93
253,37	3235,87
253,85	3158,00
254,32	3150,80
254,80	3172,00
255,27	3176,80
255,75	3213,80
256,22	3123,60
256,70	3178,53
257,17	3185,93
257,65	3219,93
258,12	3347,13
258,60	3175,40
259,07	3134,40
259,55	3177,73
260,02	3198,33
260,50	3268,47
260,97	3146,00
261,45	3137,13
261,92	3231,33
262,40	3114,53
262,87	3167,87
263,35	3164,73
263,82	3087,60
264,30	3209,53
264,77	3230,67
265,25	3144,40
265,72	3177,87
266,19	3174,33
266,67	3198,20
267,14	3149,47
267,62	3158,00
268,09	3178,07
268,57	3188,33
269,04	3075,40
269,51	3110,47
269,99	3134,40
270,46	3196,87
270,94	3221,27
271,41	3154,00
271,89	3169,80
272,36	3093,73
272,83	3091,67
273,31	3059,20
273,78	3166,80
274,26	3382,87
274,73	3214,20
275,20	3212,60
275,68	3132,13
276,15	3158,53
276,63	3191,87
277,10	3206,27
277,57	3106,00
278,05	3147,93
278,52	3103,07
279,00	3419,60
279,47	3138,93
279,94	3133,80
280,42	3400,80
280,89	3220,20
281,36	3360,20
281,84	3129,20
282,31	3231,07
282,78	3141,93
283,26	3153,93
283,73	3192,53
284,21	3126,67
284,68	3101,60
285,15	3206,80
285,63	3150,33
286,10	3178,60
286,57	3185,00
287,05	3098,73
287,52	3185,00
287,99	3263,13
288,47	3143,80
288,94	3185,87
289,41	3060,13
289,89	3245,13
290,36	3121,67
290,83	3179,07
291,30	3135,60
291,78	3194,27
292,25	3298,07
292,72	3114,93
293,20	3226,60
293,67	3133,87
294,14	3202,53
294,62	3182,60
295,09	3129,47
295,56	3178,67
296,03	3176,80
296,51	3264,93
296,98	3250,27
297,45	3203,73
297,93	3185,53
298,40	3193,07
298,87	3147,27
299,34	3252,87
299,82	3157,20
300,29	3194,40
300,76	3131,13
301,23	3217,93
301,71	3212,80
302,18	3222,53
302,65	3119,13
303,12	3210,53
303,60	3225,27
304,07	3115,00
304,54	3137,80
305,01	3115,27
305,49	3178,27
305,96	3187,93
306,43	3181,00
306,90	3204,87
307,38	3145,73
307,85	3134,60
308,32	3185,73
308,79	3138,27
309,27	3225,47
309,74	3224,73
310,21	3184,27
310,68	3181,80
311,15	3190,07
311,63	3138,93
312,10	3222,67
312,57	3163,00
313,04	3291,27
313,51	3135,13
313,99	3149,53
314,46	3183,67
314,93	3140,47
315,40	3126,53
315,87	3216,33
316,34	3217,07
316,82	3177,80
317,29	3199,93
317,76	3183,93
318,23	3339,47
318,70	3165,33
319,17	3155,07
319,65	3089,60
320,12	3200,13
320,59	3280,93
321,06	3211,93
321,53	3151,80
322,00	3067,20
322,48	3113,53
322,95	3267,07
323,42	3151,40
323,89	3313,40
324,36	3091,07
324,83	3183,67
325,30	3159,53
325,78	3153,27
326,25	3152,53
326,72	3142,07
327,19	3204,67
327,66	3185,07
328,13	3193,93
328,60	3182,33
329,07	3151,80
329,54	3135,67
330,02	3145,33
330,49	3127,87
330,96	3211,93
331,43	3199,00
331,90	3292,20
332,37	3132,00
332,84	3283,80
333,31	3213,47
333,78	3211,67
334,25	3255,00
334,72	3198,47
335,20	3205,93
335,67	3394,67
336,14	3112,47
336,61	3163,93
337,08	3146,40
337,55	3188,40
338,02	3158,67
338,49	3159,73
338,96	3259,13
339,43	3219,40
339,90	3116,13
340,37	3144,20
340,84	3104,73
341,31	3196,13
341,78	3226,80
342,25	3141,47
342,72	3175,67
343,19	3213,87
343,67	3182,60
344,14	3146,40
344,61	3164,20
345,08	3119,07
345,55	3165,73
346,02	3206,40
346,49	3147,33
346,96	3132,07
347,43	3263,20
347,90	3144,33
348,37	3242,00
348,84	3180,07
349,31	3088,07
349,78	3175,93
350,25	3208,93
350,72	3169,07
351,19	3117,40
351,66	3192,20
352,13	3273,93
352,60	3187,47
353,07	3153,27
353,54	3178,20
354,01	3203,73
354,48	3199,87
354,94	3218,60
355,41	3181,60
355,88	3260,73
356,35	3129,33
356,82	3275,87
357,29	3122,80
357,76	3312,93
358,23	3208,13
358,70	3107,87
359,17	3118,73
359,64	3139,80
360,11	3146,40
360,58	3214,80
361,05	3266,73
361,52	3143,87
361,99	3161,07
362,46	3163,80
362,93	3157,80
363,39	3174,73
363,86	3319,33
364,33	3215,40
364,80	3136,07
365,27	3204,67
365,74	3136,93
366,21	3105,67
366,68	3174,47
367,15	3159,07
367,62	4677,47
368,09	3044,87
368,55	3112,67
369,02	3224,80
369,49	3114,47
369,96	3232,40
370,43	3184,47
370,90	3143,13
371,37	3142,73
371,84	3198,73
372,31	3119,27
372,77	3086,67
373,24	3174,80
373,71	3175,47
374,18	3108,07
374,65	3119,93
375,12	3176,00
375,59	3079,87
376,05	3255,13
376,52	3141,00
376,99	3107,93
377,46	3099,60
377,93	3188,47
378,40	3181,33
378,86	3165,20
379,33	3154,60
379,80	3164,13
380,27	3205,60
380,74	3257,27
381,21	3165,87
381,67	3258,73
382,14	3264,60
382,61	3088,27
383,08	3186,87
383,55	3151,00
384,02	3231,07
384,48	3179,47
384,95	3486,60
385,42	3172,40
385,89	3143,20
386,36	3156,93
386,82	3273,07
387,29	3112,33
387,76	3093,80
388,23	3214,80
388,69	3177,67
389,16	3240,13
389,63	3136,00
390,10	3192,33
390,57	3183,53
391,03	3192,33
391,50	3186,47
391,97	3170,80
392,44	3186,33
392,90	3149,47
393,37	3145,67
393,84	3311,93
394,31	3161,27
394,77	3234,67
395,24	3127,93
395,71	3200,20
396,18	3476,73
396,64	3100,47
397,11	3196,13
397,58	3215,00
398,05	3100,13
398,51	3167,87
398,98	3130,33
399,45	3107,13
399,92	3226,40
400,38	3101,27
400,85	3167,93
401,32	3138,53
401,78	3200,07
402,25	3179,07
402,72	3160,73
403,18	3119,33
403,65	3248,00
404,12	3167,13
404,59	3256,07
405,05	3279,00
405,52	3246,93
405,99	3123,20
406,45	3220,60
406,92	3196,53
407,39	3298,60
407,85	3167,13
408,32	3172,07
408,79	3201,87
409,25	3103,47
409,72	3231,93
410,19	3100,13
410,65	3245,07
411,12	3126,27
411,59	3251,67
412,05	3154,87
412,52	3064,13
412,99	3189,13
413,45	3139,33
413,92	3180,87
414,39	3207,00
414,85	3266,60
415,32	3154,13
415,78	3259,47
416,25	3189,07
416,72	3173,13
417,18	3283,07
417,65	3190,20
418,12	3157,80
418,58	3176,33
419,05	3167,53
419,51	3215,87
419,98	3127,40
420,45	3220,07
420,91	3109,87
421,38	3170,73
421,84	3132,80
422,31	3192,27
422,78	3131,80
423,24	3150,27
423,71	3185,47
424,17	3215,27
424,64	3149,93
425,11	3220,33
425,57	3154,53
426,04	3264,73
426,50	3143,53
426,97	3242,93
427,43	3203,20
427,90	3228,67
428,37	3102,80
428,83	3229,73
429,30	3185,47
429,76	3167,87
430,23	3180,53
430,69	3374,00
431,16	3089,87
431,62	3143,27
432,09	3267,00
432,55	3237,87
433,02	3160,73
433,48	3120,07
433,95	3167,00
434,42	3139,53
434,88	3207,47
435,35	3100,27
435,81	3214,27
436,28	3189,13
436,74	3099,67
437,21	3231,20
437,67	3177,20
438,14	3183,93
438,60	3134,00
439,07	3138,87
439,53	3421,60
440,00	3193,73
440,46	3221,13
440,93	3239,67
441,39	3120,67
441,86	3141,20
442,32	3338,93
442,79	3105,80
443,25	3174,53
443,72	3188,40
444,18	3097,07
444,64	3291,27
445,11	3202,40
445,57	3169,93
446,04	3176,67
446,50	3192,47
446,97	3148,93
447,43	3184,27
447,90	3139,53
448,36	3126,40
448,83	3203,20
449,29	3186,87
449,75	3152,33
450,22	3113,53
450,68	3117,60
451,15	3144,33
451,61	3182,27
452,08	3210,00
452,54	3112,47
453,00	3231,87
453,47	3162,60
453,93	3156,27
454,40	3169,93
454,86	3192,67
455,32	3134,73
455,79	3162,67
456,25	3216,40
456,72	3141,33
457,18	3245,13
457,64	3159,40
458,11	3165,87
458,57	3106,33
459,04	3174,60
459,50	3153,33
459,96	3168,87
460,43	3134,67
460,89	3101,07
461,36	3257,87
461,82	3224,60
462,28	3125,67
462,75	3097,40
463,21	3233,93
463,67	3157,40
464,14	3174,20
464,60	3181,13
465,06	3113,67
465,53	3130,87
465,99	3219,73
466,45	3160,67
466,92	3194,00
467,38	3200,40
467,84	3154,60
468,31	3185,27
468,77	3191,33
469,23	3172,93
469,70	3115,07
470,16	3187,40
470,62	3168,87
471,09	3131,87
471,55	3151,33
472,01	3119,73
472,48	3140,13
472,94	3151,73
473,40	3251,00
473,87	3164,00
474,33	3122,73
474,79	3155,87
475,25	3103,87
475,72	3188,47
476,18	3159,60
476,64	3192,20
477,11	3159,93
477,57	3171,40
478,03	3256,20
478,49	3182,13
478,96	3242,13
479,42	3122,47
479,88	3286,07
480,35	3197,53
480,81	3179,20
481,27	3130,53
481,73	3165,40
482,20	3176,27
482,66	3111,27
483,12	3159,33
483,58	3092,40
484,05	3147,40
484,51	3268,80
484,97	3176,80
485,43	3160,73
485,89	3073,73
486,36	3156,80
486,82	3071,73
487,28	3190,07
487,74	3093,20
488,21	3101,20
488,67	3135,60
489,13	3182,13
489,59	3163,40
490,05	3221,20
490,52	3102,40
490,98	3163,47
491,44	3099,47
491,90	3125,33
492,36	3064,87
492,83	3230,53
493,29	3177,67
493,75	3154,13
494,21	3116,53
494,67	3136,93
495,14	3119,80
495,60	3112,60
496,06	3172,00
496,52	3126,87
496,98	3149,20
497,44	3288,93
497,91	3223,60
498,37	3121,93
498,83	3178,87
499,29	3144,80
499,75	3311,60
500,21	3159,80
500,67	3124,27
501,14	3162,53
501,60	3136,67
502,06	3199,27
502,52	3160,20
502,98	3154,40
503,44	3156,27
503,90	3187,40
504,37	3121,60
504,83	3189,20
505,29	3177,80
505,75	3116,87
506,21	3162,00
506,67	3219,27
507,13	3153,33
507,59	3196,60
508,05	3197,67
508,51	3121,13
508,98	3120,20
509,44	3078,33
509,90	3142,47
510,36	3148,20
510,82	3124,93
511,28	3232,87
511,74	3246,20
512,20	3123,87
512,66	3081,47
513,12	3125,07
513,58	3192,40
514,04	3063,93
514,51	3223,27
514,97	3287,20
515,43	3072,80
515,89	3169,80
516,35	3218,80
516,81	3213,47
517,27	3331,07
517,73	3186,33
518,19	3157,60
518,65	3408,20
519,11	3157,47
519,57	3120,07
520,03	3099,53
520,49	3125,40
520,95	3175,13
521,41	3187,87
521,87	3205,00
522,33	3156,87
522,79	3095,40
523,25	3275,93
523,71	3210,80
524,17	3132,93
524,63	3250,53
525,09	3201,80
525,55	3208,27
526,01	3245,00
526,47	3183,80
526,93	3156,93
527,39	3140,13
527,85	3147,73
528,31	3201,40
528,77	3189,53
529,23	3130,20
529,69	3109,13
530,15	3197,40
530,61	3203,33
531,07	3082,67
531,53	3222,80
531,99	3156,80
532,45	3159,13
532,91	3164,27
533,37	3187,87
533,83	3152,87
534,29	3097,87
534,75	3147,67
535,21	3129,73
535,67	3172,67
536,12	3131,80
536,58	3196,07
537,04	3102,40
537,50	3187,13
537,96	3150,47
538,42	3157,87
538,88	3279,00
539,34	3197,60
539,80	3514,67
540,26	3093,60
540,72	3259,33
541,18	3167,53
541,63	3097,20
542,09	3184,40
542,55	3181,07
543,01	3132,47
543,47	3336,73
543,93	3090,87
544,39	3298,53
544,85	3208,60
545,31	3144,53
545,76	3145,00
546,22	3218,67
546,68	3164,53
547,14	3180,13
547,60	3211,27
548,06	3177,07
548,52	3142,07
548,98	3146,67
549,43	3120,40
549,89	3295,00
550,35	3140,53
550,81	3092,00
551,27	3189,47
551,73	3163,27
552,19	3283,60
552,64	3174,47
553,10	3114,13
553,56	3198,13
554,02	3144,60
554,48	3111,27
554,93	3182,80
555,39	3179,60
555,85	3286,53
556,31	3170,33
556,77	3243,47
557,23	3076,80
557,68	3176,47
558,14	3305,20
558,60	3136,60
559,06	3148,07
559,52	3116,67
559,97	3110,73
560,43	3109,07
560,89	3160,33
561,35	3157,80
561,81	3149,07
562,26	3140,00
562,72	3113,87
563,18	3164,20
563,64	3217,60
564,09	3110,00
564,55	3179,20
565,01	3136,47
565,47	3145,67
565,92	3165,67
566,38	3231,60
566,84	3142,00
567,30	3126,33
567,75	3172,40
568,21	3211,47
568,67	3142,87
569,13	3136,20
569,58	3217,67
570,04	3171,40
570,50	3156,87
570,96	3211,60
571,41	3197,20
571,87	3151,73
572,33	3177,53
572,78	3193,27
573,24	3124,40
573,70	3122,87
574,16	3166,20
574,61	3230,07
575,07	3209,67
575,53	3093,13
575,98	3173,87
576,44	3061,87
576,90	3234,53
577,36	3136,40
577,81	3144,00
578,27	3102,47
578,73	3240,20
579,18	3168,93
579,64	3116,80
580,10	3186,73
580,55	3167,87
581,01	3164,53
581,47	3162,80
581,92	3173,07
582,38	3165,40
582,84	3095,67
583,29	3160,07
583,75	3165,80
584,21	3147,13
584,66	3209,53
585,12	3125,13
585,57	3326,13
586,03	3136,47
586,49	3149,40
586,94	3159,33
587,40	3149,33
587,86	3207,53
588,31	3104,60
588,77	3191,40
589,22	3144,80
589,68	3125,93
590,14	3175,40
590,59	3213,53
591,05	3134,13
591,51	3081,60
591,96	3243,80
592,42	3134,67
592,87	3186,33
593,33	3152,40
593,78	3213,47
594,24	3171,93
594,70	3146,00
595,15	3244,67
595,61	3142,00
596,06	3114,87
596,52	3257,07
596,98	3202,40
597,43	3231,53
597,89	3169,53
598,34	3087,67
598,80	3168,13
599,25	3244,20
599,71	3126,53
600,16	3203,40
600,62	3230,53
601,08	3188,53
601,53	3206,53
601,99	3095,87
602,44	3367,67
602,90	3137,73
603,35	3156,27
603,81	3088,87
604,26	3069,00
604,72	3201,07
605,17	3134,80
605,63	3181,67
606,08	3167,00
606,54	3084,33
606,99	3158,53
607,45	3144,80
607,90	3159,20
608,36	3194,00
608,81	3168,40
609,27	3320,73
609,72	3217,67
610,18	3155,80
610,63	3125,13
611,09	3176,53
611,54	3096,20
612,00	3273,93
612,45	3193,07
612,91	3165,53
613,36	3371,47
613,82	3086,67
614,27	3096,00
614,73	3096,33
615,18	3092,93
615,64	3140,27
616,09	3146,07
616,54	3102,87
617,00	3149,27
617,45	3151,40
617,91	3206,00
618,36	3122,27
618,82	3138,53
619,27	3144,00
619,72	3206,47
620,18	3128,00
620,63	3208,60
621,09	3218,07
621,54	3145,07
622,00	3223,13
622,45	3237,93
622,90	3227,33
623,36	3118,47
623,81	3113,53
624,27	3219,07
624,72	3092,33
625,17	3140,73
625,63	3174,33
626,08	3116,13
626,54	3145,00
626,99	3169,47
627,44	3103,40
627,90	3189,60
628,35	3214,13
628,81	3062,00
629,26	3161,93
629,71	3163,93
630,17	3117,53
630,62	3167,60
631,07	3152,27
631,53	3207,07
631,98	3182,60
632,43	3231,53
632,89	3123,07
633,34	3132,47
633,79	3113,40
634,25	3123,67
634,70	3101,80
635,15	3134,00
635,61	3110,60
636,06	3082,87
636,51	3160,40
636,97	3159,67
637,42	3096,27
637,87	3199,33
638,33	3218,67
638,78	3122,27
639,23	3155,60
639,69	3105,67
640,14	3071,20
640,59	3173,07
641,05	3213,00
641,50	3080,07
641,95	3121,27
642,40	3140,87
642,86	3075,67
643,31	3128,40
643,76	3195,33
644,22	3123,07
644,67	3093,27
645,12	3128,73
645,57	3092,20
646,03	3147,27
646,48	3159,00
646,93	3176,73
647,38	3200,13
647,84	3165,40
648,29	3164,07
648,74	3090,00
649,19	3226,93
649,65	3179,33
650,10	3435,47
650,55	3102,60
651,00	3104,67
651,46	3114,60
651,91	3167,73
652,36	3104,13
652,81	3142,47
653,27	3132,67
653,72	3100,73
654,17	3153,53
654,62	3168,20
655,07	3130,87
655,53	3090,20
655,98	3195,73
656,43	3107,47
656,88	3145,33
657,33	3193,13
657,79	3199,27
658,24	3110,80
658,69	3169,80
659,14	3099,07
659,59	3443,33
660,05	3126,93
660,50	3233,53
660,95	3144,27
661,40	3098,47
661,85	3132,47
662,30	3105,20
662,76	3064,67
663,21	3175,80
663,66	3127,27
664,11	3120,53
664,56	3136,07
665,01	3092,13
665,47	3156,53
665,92	3085,00
666,37	3166,00
666,82	3152,20
667,27	3332,07
667,72	3236,27
668,17	3097,87
668,62	3167,60
669,08	3099,60
669,53	3292,40
669,98	3055,47
670,43	3106,13
670,88	3226,20
671,33	3153,87
671,78	3263,47
672,23	3304,13
672,69	3149,60
673,14	3142,00
673,59	3216,60
674,04	3375,33
674,49	3159,13
674,94	3179,60
675,39	3074,07
675,84	3093,87
676,29	3156,87
676,74	3141,67
677,19	3136,53
677,64	3128,93
678,10	3326,87
678,55	3118,20
679,00	3141,40
679,45	3175,60
679,90	3114,47
680,35	3144,87
680,80	3136,73
681,25	3036,20
681,70	3050,73
682,15	3124,33
682,60	3148,27
683,05	3184,00
683,50	3176,53
683,95	3173,53
684,40	3221,73
684,85	3178,73
685,30	3172,67
685,75	3173,53
686,20	3140,07
686,65	3098,07
687,10	3149,80
687,55	3114,27
688,00	3162,87
688,45	3132,93
688,90	3348,13
689,35	3183,60
689,80	3062,07
690,25	3128,47
690,70	3149,20
691,15	3074,67
691,60	3143,33
692,05	3068,87
692,50	3153,67
692,95	3127,33
693,40	3173,53
693,85	3168,13
694,30	3138,87
694,75	3155,20
695,20	3449,80
695,65	3169,07
696,10	3149,67
696,55	3273,80
697,00	3142,20
697,45	3117,93
697,90	3176,53
698,35	3110,07
698,80	3194,53
699,24	3195,07
699,69	3114,40
700,14	3141,27
700,59	3194,20
701,04	3201,20
701,49	3422,20
701,94	3077,33
702,39	3242,20
702,84	3107,20
703,29	3114,07
703,74	3157,87
704,19	3136,60
704,63	3121,40
705,08	3225,47
705,53	3212,33
705,98	3212,47
706,43	3081,73
706,88	3197,80
707,33	3155,87
707,78	3146,20
708,22	3170,33
708,67	3203,40
709,12	3159,53
709,57	3130,40
710,02	3133,67
710,47	3146,20
710,92	3112,93
711,37	3184,60
711,81	3152,40
712,26	3152,27
712,71	3096,87
713,16	3282,13
713,61	3147,13
714,06	3157,40
714,50	3241,67
714,95	3209,27
715,40	3144,67
715,85	3151,07
716,30	3119,20
716,75	3127,93
717,19	3094,53
717,64	3070,73
718,09	3176,73
718,54	3267,47
718,99	3097,13
719,43	3087,47
719,88	3148,80
720,33	3137,93
720,78	3107,60
721,23	3159,13
721,67	3113,27
722,12	3184,53
722,57	3130,27
723,02	3087,07
723,47	3069,00
723,91	3160,07
724,36	3059,20
724,81	3185,47
725,26	3074,33
725,70	3148,53
726,15	3131,73
726,60	3144,87
727,05	3270,73
727,49	3095,53
727,94	3233,93
728,39	3184,20
728,84	3128,33
729,28	3224,47
729,73	3115,73
730,18	3204,13
730,63	3092,47
731,07	3144,33
731,52	3176,87
731,97	3159,00
732,41	3164,53
732,86	3107,60
733,31	3188,20
733,76	3163,73
734,20	3113,87
734,65	3195,53
735,10	3175,87
735,54	3154,93
735,99	3341,47
736,44	3100,53
736,89	3154,93
737,33	3214,93
737,78	3190,20
738,23	3150,13
738,67	3126,60
739,12	3149,33
739,57	3081,93
740,01	3229,20
740,46	3165,07
740,91	3092,40
741,35	3179,53
741,80	3191,07
742,25	3144,53
742,69	3163,00
743,14	3096,33
743,59	3104,60
744,03	3136,87
744,48	3220,13
744,92	3205,53
745,37	3184,33
745,82	3204,47
746,26	3239,53
746,71	3033,73
747,16	3095,27
747,60	3069,73
748,05	3179,07
748,49	3142,20
748,94	3122,60
749,39	3174,53
749,83	3344,93
750,28	3154,87
750,73	3129,67
751,17	3081,33
751,62	3120,40
752,06	3120,33
752,51	3138,80
752,95	3273,60
753,40	3114,60
753,85	3137,93
754,29	3079,47
754,74	3123,27
755,18	3089,00
755,63	3137,07
756,07	3143,20
756,52	3233,47
756,97	3131,80
757,41	3225,93
757,86	3152,20
758,30	3133,47
758,75	3142,93
759,19	3142,87
759,64	3086,00
760,08	3133,33
760,53	3178,20
760,98	3143,47
761,42	3190,67
761,87	3224,20
762,31	3128,67
762,76	3082,07
763,20	3127,73
763,65	3203,93
764,09	3142,60
764,54	3078,80
764,98	3111,73
765,43	3167,20
765,87	3088,40
766,32	3081,47
766,76	3110,07
767,21	3148,40
767,65	3142,60
768,10	3167,47
768,54	3183,40
768,99	3149,00
769,43	3273,40
769,88	3099,40
770,32	3144,47
770,77	3102,00
771,21	3095,60
771,65	3174,60
772,10	3163,93
772,54	3157,80
772,99	3068,87
773,43	3130,07
773,88	3123,73
774,32	3046,93
774,77	3144,87
775,21	3107,60
775,65	3150,87
776,10	3153,60
776,54	3089,93
776,99	3132,27
777,43	3128,93
777,88	3172,13
778,32	3185,20
778,76	3120,73
779,21	3155,13
779,65	3343,00
780,10	3234,53
780,54	3147,47
780,99	3218,27
781,43	3177,67
781,87	3104,53
782,32	3160,87
782,76	3088,07
783,20	3131,27
783,65	3175,53
784,09	3202,60
784,54	3143,87
784,98	3124,60
785,42	3129,53
785,87	3101,00
786,31	3182,40
786,75	3218,53
787,20	3212,80
787,64	3082,60
788,09	3109,93
788,53	3153,40
788,97	3101,40
789,42	3124,80
789,86	3111,80
790,30	3150,73
790,75	3097,00
791,19	3101,87
791,63	3211,47
792,08	3127,13
792,52	3148,80
792,96	3115,60
793,41	3434,60
793,85	3225,20
794,29	3145,87
794,74	3167,53
795,18	3153,73
795,62	3096,20
796,06	3171,93
796,51	3139,53
796,95	3144,27
797,39	3107,33
797,84	3076,60
798,28	3138,93
798,72	3217,13
799,16	3154,00
799,61	3100,33
800,05	3256,27
800,49	3168,00
800,94	3105,13
801,38	3176,87
801,82	3148,00
802,26	3095,80
802,71	3217,53
803,15	3258,40
803,59	3191,07
804,03	3165,40
804,48	3135,40
804,92	3116,27
805,36	3267,67
805,80	3298,47
806,25	3264,60
806,69	3211,93
807,13	3289,00
807,57	3130,60
808,01	3149,33
808,46	3098,73
808,90	3166,80
809,34	3150,33
809,78	3120,40
810,23	3082,27
810,67	3173,53
811,11	3226,47
811,55	3387,67
811,99	3130,73
812,44	3111,40
812,88	3184,73
813,32	3274,40
813,76	3207,27
814,20	3155,60
814,64	3212,07
815,09	3182,93
815,53	3168,80
815,97	3113,60
816,41	3106,60
816,85	3120,07
817,29	3201,87
817,74	3148,13
818,18	3218,67
818,62	3130,53
819,06	3191,53
819,50	3216,40
819,94	3136,87
820,39	3178,80
820,83	3127,33
821,27	3155,47
821,71	3102,20
822,15	3249,40
822,59	3104,40
823,03	3155,47
823,47	3169,00
823,92	3085,87
824,36	3151,47
824,80	3148,53
825,24	3164,67
825,68	3190,53
826,12	3097,20
826,56	3123,33
827,00	3050,73
827,44	3140,13
827,88	3193,80
828,33	3222,00
828,77	3110,47
829,21	3208,80
829,65	3180,13
830,09	3102,13
830,53	3259,47
830,97	3130,13
831,41	3316,67
831,85	3215,00
832,29	3181,73
832,73	3094,53
833,17	3144,67
833,61	3136,27
834,05	3251,47
834,49	3192,07
834,93	3139,67
835,37	3117,80
835,82	3219,40
836,26	3144,47
836,70	3167,87
837,14	3141,67
837,58	3209,80
838,02	3111,33
838,46	3120,80
838,90	3174,00
839,34	3148,53
839,78	3259,60
840,22	3306,33
840,66	3166,80
841,10	3238,80
841,54	3057,40
841,98	3121,07
842,42	3079,40
842,86	3123,00
843,30	3200,40
843,74	3153,07
844,18	3192,33
844,62	3154,33
845,06	3104,27
845,50	3193,73
845,94	3131,07
846,37	3200,87
846,81	3117,53
847,25	3110,73
847,69	3145,07
848,13	3100,07
848,57	3128,60
849,01	3119,33
849,45	3184,73
849,89	3228,20
850,33	3191,47
850,77	3127,93
851,21	3203,60
851,65	3092,53
852,09	3164,40
852,53	3221,47
852,97	3124,13
853,40	3113,80
853,84	3194,33
854,28	3074,73
854,72	3207,13
855,16	3073,27
855,60	3115,80
856,04	3217,13
856,48	3254,53
856,92	3140,27
857,36	3186,53
857,79	3157,67
858,23	3087,60
858,67	3230,80
859,11	3053,53
859,55	3099,93
859,99	3119,00
860,43	3150,27
860,87	3168,00
861,30	3186,40
861,74	3114,07
862,18	3140,00
862,62	3174,93
863,06	3107,40
863,50	3122,47
863,94	3190,60
864,37	3099,47
864,81	3152,20
865,25	3147,07
865,69	3080,87
866,13	3138,60
866,57	3060,27
867,00	3201,53
867,44	3102,80
867,88	3161,73
868,32	3140,27
868,76	3119,80
869,19	3172,87
869,63	3140,40
870,07	3238,87
870,51	3319,93
870,95	3079,93
871,38	3145,67
871,82	3157,67
872,26	3106,40
872,70	3150,73
873,14	3173,00
873,57	3143,00
874,01	3212,00
874,45	3197,07
874,89	3127,40
875,32	3085,67
875,76	3220,07
876,20	3057,87
876,64	3172,47
877,07	3135,13
877,51	3151,13
877,95	3150,60
878,39	3140,13
878,82	3171,33
879,26	3130,40
879,70	3258,73
880,14	3102,67
880,57	3086,27
881,01	3111,20
881,45	3141,13
881,89	3183,27
882,32	3142,13
882,76	3137,00
883,20	3126,87
883,63	3129,60
884,07	3093,33
884,51	3199,07
884,94	3141,60
885,38	3182,80
885,82	3196,93
886,26	3116,13
886,69	3103,73
887,13	3265,07
887,57	3087,07
888,00	3098,27
888,44	3143,00
888,88	3114,47
889,31	3374,93
889,75	3072,00
890,19	3187,47
890,62	3112,07
891,06	3180,87
891,50	3175,40
891,93	3069,60
892,37	3111,33
892,81	3127,93
893,24	3087,33
893,68	3127,87
894,11	3159,87
894,55	3121,40
894,99	3193,80
895,42	3130,00
895,86	3094,47
896,30	3144,47
896,73	3160,80
897,17	3096,33
897,60	3100,60
898,04	3107,80
898,48	3166,80
898,91	3217,87
899,35	3093,47
899,78	3097,07
900,22	3109,53
900,66	3197,33
901,09	3171,00
901,53	3118,47
901,96	3276,53
902,40	3280,73
902,84	3105,93
903,27	3126,93
903,71	3262,33
904,14	3099,87
904,58	3174,33
905,01	3106,00
905,45	3118,20
905,88	3102,73
906,32	3221,00
906,76	3148,80
907,19	3199,07
907,63	3165,07
908,06	3139,73
908,50	3186,80
908,93	3248,07
909,37	3122,87
909,80	3080,47
910,24	3165,67
910,67	3169,27
911,11	3145,40
911,54	3112,07
911,98	3122,80
912,41	3149,47
912,85	3133,93
913,28	3161,60
913,72	3173,73
914,15	3133,93
914,59	3079,00
915,02	3091,40
915,46	3118,13
915,89	3107,47
916,33	3206,53
916,76	3117,93
917,20	3207,93
917,63	3113,40
918,07	3198,60
918,50	3107,47
918,94	3137,93
919,37	3135,87
919,81	3175,60
920,24	3197,67
920,67	3148,80
921,11	3243,93
921,54	3170,93
921,98	3125,87
922,41	3087,80
922,85	3086,40
923,28	3162,13
923,72	3246,27
924,15	3185,20
924,58	3059,93
925,02	3182,47
925,45	3101,80
925,89	3200,07
926,32	3293,60
926,75	3122,80
927,19	3182,73
927,62	3075,33
928,06	3299,20
928,49	3138,40
928,92	3086,33
929,36	3195,93
929,79	3124,33
930,23	3166,47
930,66	3193,80
931,09	3112,80
931,53	3168,87
931,96	3067,33
932,39	3256,07
932,83	3218,00
933,26	3323,20
933,70	3140,73
934,13	3205,80
934,56	3202,53
935,00	3182,40
935,43	3163,27
935,86	3074,67
936,30	3137,60
936,73	3116,80
937,16	3171,93
937,60	3093,07
938,03	3190,33
938,46	3113,60
938,90	3117,27
939,33	3189,40
939,76	3092,47
940,19	3152,73
940,63	3225,87
941,06	3292,33
941,49	3110,67
941,93	3201,27
942,36	3104,67
942,79	3125,67
943,23	3196,93
943,66	3082,47
944,09	3072,00
944,52	3179,33
944,96	3177,00
945,39	3176,33
945,82	3139,07
946,26	3163,60
946,69	3159,20
947,12	3227,00
947,55	3150,87
947,99	3136,47
948,42	3180,67
948,85	3078,73
949,28	3073,13
949,72	3090,60
950,15	3328,00
950,58	3221,73
951,01	3126,53
951,45	3119,27
951,88	3174,87
952,31	3076,33
952,74	3201,47
953,17	3104,53
953,61	3260,13
954,04	3071,33
954,47	3112,07
954,90	3123,20
955,33	3118,13
955,77	3128,47
956,20	3176,60
956,63	3097,20
957,06	3180,20
957,49	3347,33
957,93	3080,20
958,36	3176,53
958,79	3153,60
959,22	3115,53
959,65	3116,00
960,08	3110,53
960,52	3051,47
960,95	3122,87
961,38	3184,47
961,81	3171,47
962,24	3206,40
962,67	3199,40
963,11	3112,93
963,54	3155,67
963,97	3127,13
964,40	3148,67
964,83	3143,40
965,26	3111,67
965,69	3196,73
966,13	3120,33
966,56	3130,00
966,99	3175,47
967,42	3109,80
967,85	3111,47
968,28	3223,20
968,71	3432,93
969,14	3196,27
969,57	3131,67
970,01	3167,20
970,44	3090,27
970,87	3113,67
971,30	3168,20
971,73	3112,80
972,16	3146,73
972,59	3085,33
973,02	3099,00
973,45	3125,87
973,88	3169,20
974,31	3126,00
974,74	3183,00
975,17	3161,33
975,61	3107,93
976,04	3112,53
976,47	3104,27
976,90	3162,07
977,33	3089,33
977,76	3183,40
978,19	3146,33
978,62	3133,00
979,05	3130,87
979,48	3123,87
979,91	3206,13
980,34	3179,60
980,77	3110,87
981,20	3164,00
981,63	3210,27
982,06	3137,13
982,49	3135,80
982,92	3116,13
983,35	3126,53
983,78	3098,93
984,21	3205,47
984,64	3195,47
985,07	3089,20
985,50	3056,80
985,93	3141,33
986,36	3181,67
986,79	3132,60
987,22	3103,60
987,65	3174,20
988,08	3145,00
988,51	3151,73
988,94	3133,00
989,37	3156,00
989,80	3144,67
990,23	3122,07
990,66	3158,47
991,09	3142,80
991,51	3156,80
991,94	3257,33
992,37	3118,00
992,80	3105,87
993,23	3137,27
993,66	3098,93
994,09	3121,33
994,52	3172,40
994,95	3180,53
995,38	3153,27
995,81	3148,53
996,24	3066,93
996,67	3078,20
997,09	3050,33
997,52	3202,20
997,95	3190,27
998,38	3109,13
998,81	3157,93
999,24	3093,07
999,67	3243,60
1000,10	3146,60
1000,53	3158,93
1000,95	3222,47
1001,38	3083,07
1001,81	3154,13
1002,24	3180,93
1002,67	3146,53
1003,10	3164,93
1003,53	3133,20
1003,95	3179,87
1004,38	3095,60
1004,81	3164,93
1005,24	3152,27
1005,67	3231,53
1006,10	3122,53
1006,52	3077,07
1006,95	3169,13
1007,38	3133,47
1007,81	3104,93
1008,24	3070,67
1008,67	3126,73
1009,09	3112,67
1009,52	3385,93
1009,95	3202,47
1010,38	3194,93
1010,81	3168,93
1011,23	3173,87
1011,66	3202,40
1012,09	3135,13
1012,52	3182,67
1012,95	3151,87
1013,37	3165,93
1013,80	3180,47
1014,23	3098,47
1014,66	3226,60
1015,08	3079,13
1015,51	3197,40
1015,94	3107,60
1016,37	3146,67
1016,80	3092,20
1017,22	3164,93
1017,65	3124,87
1018,08	4710,33
1018,51	3105,67
1018,93	3061,73
1019,36	3337,00
1019,79	3225,27
1020,21	3184,13
1020,64	3130,07
1021,07	3143,13
1021,50	3160,20
1021,92	3176,93
1022,35	3184,80
1022,78	3144,40
1023,21	3398,33
1023,63	3213,73
1024,06	3211,60
1024,49	3195,27
1024,91	3161,67
1025,34	3170,80
1025,77	3200,07
1026,19	3103,93
1026,62	3099,47
1027,05	3301,67
1027,47	3197,80
1027,90	3174,13
1028,33	3150,40
1028,75	3161,33
1029,18	3117,27
1029,61	3296,67
1030,03	3153,00
1030,46	3139,53
1030,89	3177,80
1031,31	3233,33
1031,74	3074,73
1032,17	3157,73
1032,59	3192,40
1033,02	3133,53
1033,45	3208,80
1033,87	3102,73
1034,30	3100,47
1034,73	3173,73
1035,15	3200,87
1035,58	3120,93
1036,00	3265,80
1036,43	3107,53
1036,86	3116,27
1037,28	3158,93
1037,71	3081,53
1038,13	3193,60
1038,56	3213,33
1038,99	3194,13
1039,41	3216,67
1039,84	3255,53
1040,26	3136,67
1040,69	3141,33
1041,11	3166,73
1041,54	3124,73
1041,97	3231,80
1042,39	3229,47
1042,82	3178,40
1043,24	3205,13
1043,67	3152,33
1044,09	3216,33
1044,52	3101,53
1044,95	3138,40
1045,37	3122,47
1045,80	3099,27
1046,22	3162,33
1046,65	3185,40
1047,07	3114,00
1047,50	3181,73
1047,92	3211,40
1048,35	3092,53
1048,77	3218,27
1049,20	3196,27
1049,62	3205,07
1050,05	3139,73
1050,47	3132,13
1050,90	3181,53
1051,32	3208,73
1051,75	3235,93
1052,17	3223,40
1052,60	3167,53
1053,02	3192,20
1053,45	3052,73
1053,87	3160,47
1054,30	3064,60
1054,72	3140,13
1055,15	3113,67
1055,57	3168,33
1056,00	3188,20
1056,42	3269,87
1056,85	3217,40
1057,27	3224,40
1057,70	3157,93
1058,12	3429,80
1058,54	3105,33
1058,97	3182,27
1059,39	3200,40
1059,82	3146,60
1060,24	3130,13
1060,67	3120,47
1061,09	3206,93
1061,51	3163,67
1061,94	3129,07
1062,36	3209,00
1062,79	3257,07
1063,21	3172,93
1063,64	3153,40
1064,06	3113,47
1064,48	3219,80
1064,91	3214,80
1065,33	3139,00
1065,76	3117,87
1066,18	3079,20
1066,60	3219,67
1067,03	3159,13
1067,45	3151,27
1067,87	3178,60
1068,30	3130,73
1068,72	3264,87
1069,15	3159,00
1069,57	3121,60
1069,99	3077,67
1070,42	3204,20
1070,84	3219,00
1071,26	3218,40
1071,69	3140,07
1072,11	3196,13
1072,53	3126,80
1072,96	3100,20
1073,38	3079,53
1073,80	3202,67
1074,23	3121,00
1074,65	3081,40
1075,07	3124,40
1075,50	3129,20
1075,92	3158,80
1076,34	3119,53
1076,77	3099,13
1077,19	3145,53
1077,61	3207,47
1078,04	3129,07
1078,46	3206,33
1078,88	3255,13
1079,30	3051,20
1079,73	3160,67
1080,15	3129,53
1080,57	3138,20
1081,00	3192,20
1081,42	3151,20
1081,84	3139,27
1082,26	3171,80
1082,69	3141,20
1083,11	3149,00
1083,53	3150,00
1083,95	3150,33
1084,38	3209,80
1084,80	3148,80
1085,22	3139,80
1085,64	3223,47
1086,07	3096,00
1086,49	3124,27
1086,91	3165,93
1087,33	3070,40
1087,76	3198,33
1088,18	5439,00
1088,60	3155,53
1089,02	3112,67
1089,45	3121,73
1089,87	3137,33
1090,29	3222,33
1090,71	3143,13
1091,13	3091,33
1091,56	3148,73
1091,98	3141,07
1092,40	3113,93
1092,82	3151,60
1093,24	3127,20
1093,66	3148,13
1094,09	3128,67
1094,51	3145,27
1094,93	3129,80
1095,35	3140,27
1095,77	3112,60
1096,19	3160,20
1096,62	3176,00
1097,04	3084,53
1097,46	3144,33
1097,88	3114,33
1098,30	3177,13
1098,72	3178,73
1099,15	3200,00
1099,57	3141,00
1099,99	3137,33
1100,41	3105,40
1100,83	3127,40
1101,25	3116,80
1101,67	3149,07
1102,09	3080,67
1102,52	3116,73
1102,94	3129,47
1103,36	3131,67
1103,78	3152,87
1104,20	3115,47
1104,62	3244,33
1105,04	3034,47
1105,46	3153,67
1105,88	3134,00
1106,30	3102,47
1106,73	3137,53
1107,15	3035,33
1107,57	3068,27
1107,99	3196,33
1108,41	3067,93
1108,83	3168,47
1109,25	3150,87
1109,67	3157,60
1110,09	3047,40
1110,51	3103,00
1110,93	3054,20
1111,35	3093,20
1111,77	3063,00
1112,19	3070,07
1112,61	3043,80
1113,03	3098,00
1113,45	3072,20
1113,87	3070,60
1114,29	3120,00
1114,71	3141,40
1115,13	3083,93
1115,55	3106,27
1115,98	3079,87
1116,40	3148,87
1116,82	3115,33
1117,24	3091,20
1117,66	3061,87
1118,08	2171,33
1118,50	2193,47
1118,91	2192,00
1119,33	2192,13
>>>>>End Processed Spectral Data<<<<<
