SpectraSuite Data File
++++++++++++++++++++++++++++++++++++
Date: Wed Mar 12 09:34:53 EET 2014
User: OO Maya
Dark Spectrum Present: No
Reference Spectrum Present: No
Number of Sampled Component Spectra: 1
Spectrometers: MAYP11278
Integration Time (usec): 5000000 (MAYP11278)
Spectra Averaged: 10 (MAYP11278)
Boxcar Smoothing: 0 (MAYP11278)
Correct for Electrical Dark: No (MAYP11278)
Strobe/Lamp Enabled: No (MAYP11278)
Correct for Detector Non-linearity: No (MAYP11278)
Correct for Stray Light: No (MAYP11278)
Number of Pixels in Processed Spectrum: 2068
>>>>>Begin Processed Spectral Data<<<<<
188,05	2303,60
188,53	2220,20
189,01	2191,00
189,49	2192,00
189,96	9196,90
190,44	10054,90
190,92	10379,50
191,40	10705,90
191,88	11184,20
192,36	10750,70
192,83	10548,90
193,31	10267,40
193,79	10763,30
194,27	10613,60
194,75	10892,20
195,23	10606,60
195,70	11148,00
196,18	10553,50
196,66	10704,90
197,14	11944,20
197,62	10785,20
198,09	10390,50
198,57	10591,90
199,05	10459,70
199,53	10935,80
200,01	11131,10
200,48	10628,60
200,96	10661,40
201,44	11104,10
201,92	11063,20
202,39	11070,10
202,87	10281,60
203,35	10920,50
203,83	10436,20
204,31	11148,40
204,78	11370,30
205,26	10541,40
205,74	10600,80
206,22	11446,20
206,69	10648,00
207,17	10945,80
207,65	12046,20
208,13	10775,30
208,60	11094,90
209,08	10669,30
209,56	11251,10
210,04	11081,20
210,51	10842,60
210,99	10776,40
211,47	10995,60
211,94	10773,30
212,42	10560,90
212,90	11667,60
213,38	11085,50
213,85	10628,50
214,33	11635,20
214,81	10963,00
215,29	11544,70
215,76	11022,90
216,24	11164,20
216,72	11177,60
217,19	11146,80
217,67	10579,10
218,15	10792,00
218,62	11392,20
219,10	10242,80
219,58	10557,90
220,05	10585,00
220,53	10802,60
221,01	12840,00
221,49	10649,80
221,96	11325,30
222,44	10641,90
222,92	11288,90
223,39	10768,30
223,87	11321,60
224,35	10810,90
224,82	10728,40
225,30	10466,80
225,78	10821,70
226,25	10568,60
226,73	10937,50
227,21	11398,30
227,68	10856,00
228,16	11141,20
228,63	11259,20
229,11	11183,20
229,59	10870,90
230,06	10953,50
230,54	10737,70
231,02	11257,50
231,49	11261,70
231,97	10917,80
232,45	11000,70
232,92	10538,80
233,40	10978,90
233,87	11115,00
234,35	12678,80
234,83	11149,40
235,30	10730,30
235,78	10654,30
236,25	10393,70
236,73	11416,60
237,21	11971,10
237,68	10743,70
238,16	11053,90
238,63	11022,60
239,11	11005,50
239,59	10899,00
240,06	10424,80
240,54	11244,50
241,01	11576,00
241,49	11090,10
241,96	10845,00
242,44	11380,10
242,92	11564,50
243,39	10488,60
243,87	10727,70
244,34	11382,80
244,82	11636,50
245,29	10846,20
245,77	11641,70
246,24	11518,70
246,72	10781,10
247,20	11061,90
247,67	11021,80
248,15	11121,80
248,62	11231,20
249,10	10373,20
249,57	11044,00
250,05	11360,30
250,52	11117,30
251,00	11659,40
251,47	11068,40
251,95	12016,80
252,42	11652,10
252,90	10871,00
253,37	11665,00
253,85	11100,40
254,32	11003,70
254,80	11184,70
255,27	11219,90
255,75	11432,80
256,22	10827,90
256,70	11180,20
257,17	11273,10
257,65	11599,80
258,12	12516,50
258,60	11147,80
259,07	10853,10
259,55	11180,70
260,02	11374,70
260,50	11895,90
260,97	11033,60
261,45	10945,30
261,92	11644,00
262,40	10815,70
262,87	11252,00
263,35	11138,80
263,82	10569,20
264,30	11489,00
264,77	11590,00
265,25	10854,70
265,72	11150,90
266,19	11268,60
266,67	11411,80
267,14	11088,90
267,62	11092,50
268,09	11312,90
268,57	11407,20
269,04	10538,70
269,51	10862,80
269,99	10936,70
270,46	11428,00
270,94	11642,30
271,41	10977,50
271,89	11189,90
272,36	10610,10
272,83	10619,20
273,31	10349,90
273,78	11167,60
274,26	12945,30
274,73	11561,10
275,20	11571,00
275,68	10954,00
276,15	11149,60
276,63	11406,00
277,10	11556,00
277,57	10711,30
278,05	11107,70
278,52	10689,20
279,00	13135,70
279,47	10985,80
279,94	10929,00
280,42	13038,00
280,89	11649,80
281,36	12770,20
281,84	10963,20
282,31	11785,70
282,78	11094,50
283,26	11131,30
283,73	11445,30
284,21	10766,10
284,68	10679,20
285,15	11512,40
285,63	11113,40
286,10	11321,00
286,57	11328,40
287,05	10598,60
287,52	11409,70
287,99	11994,60
288,47	11164,20
288,94	11561,90
289,41	10489,20
289,89	11965,70
290,36	10886,90
290,83	11394,60
291,30	10920,80
291,78	11405,80
292,25	12252,10
292,72	10859,70
293,20	11663,00
293,67	11008,80
294,14	11477,00
294,62	11457,60
295,09	11034,40
295,56	11329,40
296,03	11472,30
296,51	12255,30
296,98	12110,60
297,45	11658,40
297,93	11475,20
298,40	11439,70
298,87	11060,20
299,34	11991,80
299,82	11154,40
300,29	11444,50
300,76	11008,10
301,23	11730,40
301,71	11695,00
302,18	11756,60
302,65	10939,00
303,12	11800,30
303,60	11864,20
304,07	11063,40
304,54	11239,30
305,01	11056,90
305,49	11435,50
305,96	11508,20
306,43	11484,70
306,90	11550,30
307,38	11154,00
307,85	11075,80
308,32	11371,60
308,79	11088,70
309,27	11752,00
309,74	11826,30
310,21	11558,70
310,68	11476,50
311,15	11648,00
311,63	11150,50
312,10	11898,30
312,57	11350,20
313,04	12239,10
313,51	11074,30
313,99	11140,50
314,46	11393,70
314,93	11083,20
315,40	11023,80
315,87	11729,40
316,34	11669,10
316,82	11464,40
317,29	11682,10
317,76	11466,40
318,23	12824,90
318,70	11440,70
319,17	11345,90
319,65	10876,90
320,12	11655,70
320,59	12404,10
321,06	11864,70
321,53	11321,70
322,00	10744,70
322,48	11036,40
322,95	12233,00
323,42	11271,00
323,89	12564,00
324,36	10849,70
324,83	11599,10
325,30	11505,10
325,78	11469,90
326,25	11546,10
326,72	11522,00
327,19	12039,40
327,66	11928,70
328,13	11949,10
328,60	11737,80
329,07	11506,80
329,54	11390,20
330,02	11447,60
330,49	11228,80
330,96	11976,40
331,43	11758,90
331,90	12354,20
332,37	11287,60
332,84	12678,50
333,31	12141,90
333,78	12188,10
334,25	12495,70
334,72	11992,20
335,20	12085,30
335,67	13575,70
336,14	11276,60
336,61	11692,00
337,08	11595,80
337,55	11902,40
338,02	11533,20
338,49	11478,50
338,96	12343,60
339,43	11959,90
339,90	11098,00
340,37	11209,90
340,84	11052,10
341,31	11731,00
341,78	11934,10
342,25	11298,60
342,72	11542,40
343,19	11782,10
343,67	11502,20
344,14	11177,40
344,61	11302,20
345,08	10930,70
345,55	11239,90
346,02	11476,70
346,49	10905,30
346,96	10818,40
347,43	11873,50
347,90	10830,50
348,37	11557,70
348,84	11177,30
349,31	10488,50
349,78	11127,50
350,25	11441,40
350,72	11120,20
351,19	10652,00
351,66	11158,80
352,13	11919,50
352,60	11127,60
353,07	10874,90
353,54	11065,80
354,01	11272,20
354,48	11161,30
354,94	11363,90
355,41	11164,20
355,88	11821,50
356,35	10753,80
356,82	11874,10
357,29	10650,80
357,76	12169,30
358,23	11394,70
358,70	10643,20
359,17	10683,60
359,64	10875,10
360,11	10918,40
360,58	11568,70
361,05	11813,40
361,52	10962,80
361,99	11032,90
362,46	11106,30
362,93	11065,90
363,39	11061,70
363,86	12245,80
364,33	11420,90
364,80	10838,80
365,27	11431,70
365,74	10971,40
366,21	10740,80
366,68	11334,90
367,15	11258,00
367,62	18894,60
368,09	10461,00
368,55	10877,50
369,02	11688,80
369,49	10783,00
369,96	11674,60
370,43	11328,50
370,90	11057,70
371,37	10993,30
371,84	11441,20
372,31	10863,50
372,77	10544,90
373,24	10950,40
373,71	11265,10
374,18	10735,80
374,65	10835,20
375,12	11386,60
375,59	10616,50
376,05	12026,70
376,52	11100,50
376,99	10804,20
377,46	10749,90
377,93	11393,70
378,40	11379,00
378,86	11225,20
379,33	11199,00
379,80	11209,90
380,27	11488,90
380,74	11959,40
381,21	11281,60
381,67	11971,00
382,14	11949,20
382,61	10628,50
383,08	11411,10
383,55	11075,30
384,02	11777,90
384,48	11354,30
384,95	13907,90
385,42	11378,60
385,89	11150,20
386,36	11318,40
386,82	12342,30
387,29	11088,80
387,76	10986,70
388,23	12048,50
388,69	11871,50
389,16	12377,80
389,63	11608,00
390,10	12327,40
390,57	12428,20
391,03	12719,60
391,50	12883,90
391,97	13135,20
392,44	13521,80
392,90	13565,90
393,37	13975,30
393,84	15644,30
394,31	14837,50
394,77	15879,80
395,24	15512,60
395,71	16654,50
396,18	19214,10
396,64	16834,20
397,11	18130,80
397,58	18852,80
398,05	18539,70
398,51	19477,70
398,98	19839,40
399,45	20185,20
399,92	21681,50
400,38	21264,10
400,85	22242,40
401,32	22644,60
401,78	23523,30
402,25	24072,60
402,72	24435,80
403,18	24711,10
403,65	26275,30
404,12	25960,60
404,59	27161,50
405,05	27944,30
405,52	28119,90
405,99	27659,50
406,45	28840,80
406,92	29053,30
407,39	30309,40
407,85	29705,00
408,32	30174,60
408,79	30779,60
409,25	30461,60
409,72	31802,80
410,19	31289,00
410,65	32635,60
411,12	32180,50
411,59	33427,10
412,05	33015,80
412,52	32834,30
412,99	34102,20
413,45	34143,60
413,92	34720,10
414,39	35229,20
414,85	36089,90
415,32	35497,20
415,78	36675,80
416,25	36315,60
416,72	36658,50
417,18	37761,10
417,65	37376,60
418,12	37366,70
418,58	37878,90
419,05	38218,50
419,51	38834,90
419,98	38611,80
420,45	39531,90
420,91	39012,30
421,38	39733,30
421,84	39875,80
422,31	40730,60
422,78	40609,60
423,24	40933,20
423,71	41602,20
424,17	42107,00
424,64	42010,90
425,11	42737,00
425,57	42715,90
426,04	43643,90
426,50	43237,80
426,97	44221,90
427,43	44366,80
427,90	44767,70
428,37	44237,70
428,83	45452,30
429,30	45556,10
429,76	45674,50
430,23	46177,80
430,69	47837,70
431,16	46255,00
431,62	46949,10
432,09	48140,20
432,55	48123,00
433,02	48086,20
433,48	48208,70
433,95	48747,10
434,42	49175,80
434,88	49841,60
435,35	49553,00
435,81	50659,10
436,28	50933,90
436,74	50497,60
437,21	51618,50
437,67	51870,90
438,14	52116,10
438,60	52149,60
439,07	52607,40
439,53	54935,50
440,00	53609,10
440,46	54205,40
440,93	54718,50
441,39	54162,20
441,86	54648,70
442,32	56373,00
442,79	55235,80
443,25	55994,10
443,72	56403,30
444,18	56239,20
444,64	57858,40
445,11	57793,80
445,57	57966,30
446,04	58256,20
446,50	58777,70
446,97	58926,30
447,43	59403,70
447,90	59592,20
448,36	59782,30
448,83	60764,70
449,29	61109,60
449,75	61238,10
450,22	61448,40
450,68	61719,30
451,15	62306,00
451,61	63122,40
452,08	63733,10
452,54	63548,90
453,00	64000,00
453,47	64000,00
453,93	64000,00
454,40	64000,00
454,86	64000,00
455,32	64000,00
455,79	64000,00
456,25	64000,00
456,72	64000,00
457,18	64000,00
457,64	64000,00
458,11	64000,00
458,57	64000,00
459,04	64000,00
459,50	64000,00
459,96	64000,00
460,43	64000,00
460,89	64000,00
461,36	64000,00
461,82	64000,00
462,28	64000,00
462,75	64000,00
463,21	64000,00
463,67	64000,00
464,14	64000,00
464,60	64000,00
465,06	64000,00
465,53	64000,00
465,99	64000,00
466,45	64000,00
466,92	64000,00
467,38	64000,00
467,84	64000,00
468,31	64000,00
468,77	64000,00
469,23	64000,00
469,70	64000,00
470,16	64000,00
470,62	64000,00
471,09	64000,00
471,55	64000,00
472,01	64000,00
472,48	64000,00
472,94	64000,00
473,40	64000,00
473,87	64000,00
474,33	64000,00
474,79	64000,00
475,25	64000,00
475,72	64000,00
476,18	64000,00
476,64	64000,00
477,11	64000,00
477,57	64000,00
478,03	64000,00
478,49	64000,00
478,96	64000,00
479,42	64000,00
479,88	64000,00
480,35	64000,00
480,81	64000,00
481,27	64000,00
481,73	64000,00
482,20	64000,00
482,66	64000,00
483,12	64000,00
483,58	64000,00
484,05	64000,00
484,51	64000,00
484,97	64000,00
485,43	64000,00
485,89	64000,00
486,36	64000,00
486,82	64000,00
487,28	64000,00
487,74	64000,00
488,21	64000,00
488,67	64000,00
489,13	64000,00
489,59	64000,00
490,05	64000,00
490,52	64000,00
490,98	64000,00
491,44	64000,00
491,90	64000,00
492,36	64000,00
492,83	64000,00
493,29	64000,00
493,75	64000,00
494,21	64000,00
494,67	64000,00
495,14	64000,00
495,60	64000,00
496,06	64000,00
496,52	64000,00
496,98	64000,00
497,44	64000,00
497,91	64000,00
498,37	64000,00
498,83	64000,00
499,29	64000,00
499,75	64000,00
500,21	64000,00
500,67	64000,00
501,14	64000,00
501,60	64000,00
502,06	64000,00
502,52	64000,00
502,98	64000,00
503,44	64000,00
503,90	64000,00
504,37	64000,00
504,83	64000,00
505,29	64000,00
505,75	64000,00
506,21	64000,00
506,67	64000,00
507,13	64000,00
507,59	64000,00
508,05	64000,00
508,51	64000,00
508,98	64000,00
509,44	64000,00
509,90	64000,00
510,36	64000,00
510,82	64000,00
511,28	64000,00
511,74	64000,00
512,20	64000,00
512,66	64000,00
513,12	64000,00
513,58	64000,00
514,04	64000,00
514,51	64000,00
514,97	64000,00
515,43	64000,00
515,89	64000,00
516,35	64000,00
516,81	64000,00
517,27	64000,00
517,73	64000,00
518,19	64000,00
518,65	64000,00
519,11	64000,00
519,57	64000,00
520,03	64000,00
520,49	64000,00
520,95	64000,00
521,41	64000,00
521,87	64000,00
522,33	64000,00
522,79	64000,00
523,25	64000,00
523,71	64000,00
524,17	64000,00
524,63	64000,00
525,09	64000,00
525,55	64000,00
526,01	64000,00
526,47	64000,00
526,93	64000,00
527,39	64000,00
527,85	64000,00
528,31	64000,00
528,77	64000,00
529,23	64000,00
529,69	64000,00
530,15	64000,00
530,61	64000,00
531,07	64000,00
531,53	64000,00
531,99	64000,00
532,45	64000,00
532,91	64000,00
533,37	64000,00
533,83	64000,00
534,29	64000,00
534,75	64000,00
535,21	64000,00
535,67	64000,00
536,12	64000,00
536,58	64000,00
537,04	64000,00
537,50	64000,00
537,96	64000,00
538,42	64000,00
538,88	64000,00
539,34	64000,00
539,80	64000,00
540,26	64000,00
540,72	64000,00
541,18	64000,00
541,63	64000,00
542,09	64000,00
542,55	64000,00
543,01	64000,00
543,47	64000,00
543,93	64000,00
544,39	64000,00
544,85	64000,00
545,31	64000,00
545,76	64000,00
546,22	64000,00
546,68	64000,00
547,14	64000,00
547,60	64000,00
548,06	64000,00
548,52	64000,00
548,98	64000,00
549,43	64000,00
549,89	64000,00
550,35	64000,00
550,81	64000,00
551,27	64000,00
551,73	64000,00
552,19	64000,00
552,64	64000,00
553,10	64000,00
553,56	64000,00
554,02	64000,00
554,48	64000,00
554,93	64000,00
555,39	64000,00
555,85	64000,00
556,31	64000,00
556,77	64000,00
557,23	64000,00
557,68	64000,00
558,14	64000,00
558,60	64000,00
559,06	64000,00
559,52	64000,00
559,97	64000,00
560,43	64000,00
560,89	64000,00
561,35	64000,00
561,81	64000,00
562,26	64000,00
562,72	64000,00
563,18	64000,00
563,64	64000,00
564,09	64000,00
564,55	64000,00
565,01	64000,00
565,47	64000,00
565,92	64000,00
566,38	64000,00
566,84	64000,00
567,30	64000,00
567,75	64000,00
568,21	64000,00
568,67	64000,00
569,13	64000,00
569,58	64000,00
570,04	64000,00
570,50	64000,00
570,96	64000,00
571,41	64000,00
571,87	64000,00
572,33	64000,00
572,78	64000,00
573,24	64000,00
573,70	64000,00
574,16	64000,00
574,61	64000,00
575,07	64000,00
575,53	64000,00
575,98	64000,00
576,44	64000,00
576,90	64000,00
577,36	64000,00
577,81	64000,00
578,27	64000,00
578,73	64000,00
579,18	64000,00
579,64	64000,00
580,10	64000,00
580,55	64000,00
581,01	64000,00
581,47	64000,00
581,92	64000,00
582,38	64000,00
582,84	64000,00
583,29	64000,00
583,75	64000,00
584,21	64000,00
584,66	64000,00
585,12	64000,00
585,57	64000,00
586,03	64000,00
586,49	64000,00
586,94	64000,00
587,40	64000,00
587,86	64000,00
588,31	64000,00
588,77	64000,00
589,22	64000,00
589,68	64000,00
590,14	64000,00
590,59	64000,00
591,05	64000,00
591,51	64000,00
591,96	64000,00
592,42	64000,00
592,87	64000,00
593,33	64000,00
593,78	64000,00
594,24	64000,00
594,70	64000,00
595,15	64000,00
595,61	64000,00
596,06	64000,00
596,52	64000,00
596,98	64000,00
597,43	64000,00
597,89	64000,00
598,34	64000,00
598,80	64000,00
599,25	64000,00
599,71	64000,00
600,16	64000,00
600,62	64000,00
601,08	64000,00
601,53	64000,00
601,99	64000,00
602,44	64000,00
602,90	64000,00
603,35	64000,00
603,81	64000,00
604,26	64000,00
604,72	64000,00
605,17	64000,00
605,63	64000,00
606,08	64000,00
606,54	64000,00
606,99	64000,00
607,45	64000,00
607,90	64000,00
608,36	64000,00
608,81	64000,00
609,27	64000,00
609,72	64000,00
610,18	64000,00
610,63	64000,00
611,09	64000,00
611,54	64000,00
612,00	64000,00
612,45	64000,00
612,91	64000,00
613,36	64000,00
613,82	64000,00
614,27	64000,00
614,73	64000,00
615,18	64000,00
615,64	64000,00
616,09	64000,00
616,54	64000,00
617,00	64000,00
617,45	64000,00
617,91	64000,00
618,36	64000,00
618,82	64000,00
619,27	64000,00
619,72	64000,00
620,18	64000,00
620,63	64000,00
621,09	64000,00
621,54	64000,00
622,00	64000,00
622,45	64000,00
622,90	64000,00
623,36	64000,00
623,81	64000,00
624,27	64000,00
624,72	64000,00
625,17	64000,00
625,63	64000,00
626,08	64000,00
626,54	64000,00
626,99	64000,00
627,44	64000,00
627,90	64000,00
628,35	64000,00
628,81	64000,00
629,26	64000,00
629,71	64000,00
630,17	64000,00
630,62	64000,00
631,07	64000,00
631,53	64000,00
631,98	64000,00
632,43	64000,00
632,89	64000,00
633,34	64000,00
633,79	64000,00
634,25	64000,00
634,70	64000,00
635,15	64000,00
635,61	64000,00
636,06	64000,00
636,51	64000,00
636,97	64000,00
637,42	64000,00
637,87	64000,00
638,33	64000,00
638,78	64000,00
639,23	64000,00
639,69	64000,00
640,14	64000,00
640,59	64000,00
641,05	64000,00
641,50	64000,00
641,95	64000,00
642,40	64000,00
642,86	64000,00
643,31	64000,00
643,76	64000,00
644,22	64000,00
644,67	64000,00
645,12	64000,00
645,57	64000,00
646,03	64000,00
646,48	64000,00
646,93	64000,00
647,38	64000,00
647,84	64000,00
648,29	64000,00
648,74	64000,00
649,19	64000,00
649,65	64000,00
650,10	64000,00
650,55	64000,00
651,00	64000,00
651,46	64000,00
651,91	64000,00
652,36	64000,00
652,81	64000,00
653,27	64000,00
653,72	64000,00
654,17	64000,00
654,62	64000,00
655,07	64000,00
655,53	64000,00
655,98	64000,00
656,43	64000,00
656,88	64000,00
657,33	64000,00
657,79	64000,00
658,24	64000,00
658,69	64000,00
659,14	64000,00
659,59	64000,00
660,05	64000,00
660,50	64000,00
660,95	64000,00
661,40	64000,00
661,85	64000,00
662,30	64000,00
662,76	64000,00
663,21	64000,00
663,66	64000,00
664,11	64000,00
664,56	64000,00
665,01	64000,00
665,47	64000,00
665,92	64000,00
666,37	64000,00
666,82	64000,00
667,27	64000,00
667,72	64000,00
668,17	64000,00
668,62	64000,00
669,08	64000,00
669,53	64000,00
669,98	64000,00
670,43	64000,00
670,88	64000,00
671,33	64000,00
671,78	64000,00
672,23	64000,00
672,69	64000,00
673,14	64000,00
673,59	64000,00
674,04	64000,00
674,49	64000,00
674,94	64000,00
675,39	64000,00
675,84	64000,00
676,29	64000,00
676,74	64000,00
677,19	64000,00
677,64	64000,00
678,10	64000,00
678,55	64000,00
679,00	64000,00
679,45	64000,00
679,90	64000,00
680,35	64000,00
680,80	64000,00
681,25	64000,00
681,70	64000,00
682,15	64000,00
682,60	64000,00
683,05	64000,00
683,50	64000,00
683,95	64000,00
684,40	64000,00
684,85	64000,00
685,30	64000,00
685,75	64000,00
686,20	64000,00
686,65	64000,00
687,10	64000,00
687,55	64000,00
688,00	64000,00
688,45	64000,00
688,90	64000,00
689,35	64000,00
689,80	64000,00
690,25	64000,00
690,70	64000,00
691,15	64000,00
691,60	64000,00
692,05	64000,00
692,50	64000,00
692,95	64000,00
693,40	64000,00
693,85	64000,00
694,30	64000,00
694,75	64000,00
695,20	64000,00
695,65	64000,00
696,10	64000,00
696,55	64000,00
697,00	64000,00
697,45	64000,00
697,90	64000,00
698,35	64000,00
698,80	64000,00
699,24	64000,00
699,69	64000,00
700,14	64000,00
700,59	64000,00
701,04	64000,00
701,49	64000,00
701,94	64000,00
702,39	64000,00
702,84	64000,00
703,29	64000,00
703,74	64000,00
704,19	64000,00
704,63	64000,00
705,08	64000,00
705,53	64000,00
705,98	64000,00
706,43	64000,00
706,88	64000,00
707,33	64000,00
707,78	64000,00
708,22	64000,00
708,67	64000,00
709,12	64000,00
709,57	64000,00
710,02	64000,00
710,47	64000,00
710,92	64000,00
711,37	64000,00
711,81	64000,00
712,26	64000,00
712,71	64000,00
713,16	64000,00
713,61	64000,00
714,06	64000,00
714,50	64000,00
714,95	64000,00
715,40	64000,00
715,85	64000,00
716,30	64000,00
716,75	64000,00
717,19	64000,00
717,64	64000,00
718,09	64000,00
718,54	64000,00
718,99	64000,00
719,43	64000,00
719,88	64000,00
720,33	64000,00
720,78	64000,00
721,23	64000,00
721,67	64000,00
722,12	64000,00
722,57	64000,00
723,02	64000,00
723,47	64000,00
723,91	64000,00
724,36	64000,00
724,81	64000,00
725,26	64000,00
725,70	64000,00
726,15	64000,00
726,60	64000,00
727,05	64000,00
727,49	64000,00
727,94	64000,00
728,39	64000,00
728,84	64000,00
729,28	64000,00
729,73	64000,00
730,18	64000,00
730,63	64000,00
731,07	64000,00
731,52	64000,00
731,97	64000,00
732,41	64000,00
732,86	64000,00
733,31	64000,00
733,76	64000,00
734,20	64000,00
734,65	64000,00
735,10	64000,00
735,54	64000,00
735,99	64000,00
736,44	64000,00
736,89	64000,00
737,33	64000,00
737,78	64000,00
738,23	64000,00
738,67	64000,00
739,12	64000,00
739,57	64000,00
740,01	64000,00
740,46	64000,00
740,91	64000,00
741,35	64000,00
741,80	64000,00
742,25	64000,00
742,69	64000,00
743,14	64000,00
743,59	64000,00
744,03	64000,00
744,48	64000,00
744,92	64000,00
745,37	64000,00
745,82	64000,00
746,26	64000,00
746,71	64000,00
747,16	64000,00
747,60	64000,00
748,05	64000,00
748,49	64000,00
748,94	64000,00
749,39	64000,00
749,83	64000,00
750,28	64000,00
750,73	64000,00
751,17	64000,00
751,62	64000,00
752,06	64000,00
752,51	64000,00
752,95	64000,00
753,40	64000,00
753,85	64000,00
754,29	64000,00
754,74	64000,00
755,18	64000,00
755,63	64000,00
756,07	64000,00
756,52	64000,00
756,97	64000,00
757,41	64000,00
757,86	64000,00
758,30	64000,00
758,75	64000,00
759,19	64000,00
759,64	64000,00
760,08	64000,00
760,53	64000,00
760,98	64000,00
761,42	64000,00
761,87	64000,00
762,31	64000,00
762,76	64000,00
763,20	64000,00
763,65	64000,00
764,09	64000,00
764,54	64000,00
764,98	64000,00
765,43	64000,00
765,87	64000,00
766,32	64000,00
766,76	64000,00
767,21	64000,00
767,65	64000,00
768,10	64000,00
768,54	64000,00
768,99	64000,00
769,43	64000,00
769,88	64000,00
770,32	64000,00
770,77	64000,00
771,21	64000,00
771,65	64000,00
772,10	64000,00
772,54	64000,00
772,99	64000,00
773,43	64000,00
773,88	64000,00
774,32	64000,00
774,77	64000,00
775,21	64000,00
775,65	64000,00
776,10	64000,00
776,54	64000,00
776,99	64000,00
777,43	64000,00
777,88	64000,00
778,32	64000,00
778,76	64000,00
779,21	64000,00
779,65	64000,00
780,10	64000,00
780,54	64000,00
780,99	64000,00
781,43	64000,00
781,87	64000,00
782,32	64000,00
782,76	64000,00
783,20	64000,00
783,65	64000,00
784,09	64000,00
784,54	64000,00
784,98	64000,00
785,42	64000,00
785,87	64000,00
786,31	64000,00
786,75	64000,00
787,20	64000,00
787,64	64000,00
788,09	64000,00
788,53	64000,00
788,97	64000,00
789,42	64000,00
789,86	64000,00
790,30	64000,00
790,75	64000,00
791,19	64000,00
791,63	64000,00
792,08	64000,00
792,52	64000,00
792,96	64000,00
793,41	64000,00
793,85	64000,00
794,29	64000,00
794,74	64000,00
795,18	64000,00
795,62	64000,00
796,06	64000,00
796,51	64000,00
796,95	64000,00
797,39	64000,00
797,84	64000,00
798,28	64000,00
798,72	64000,00
799,16	64000,00
799,61	64000,00
800,05	64000,00
800,49	64000,00
800,94	64000,00
801,38	64000,00
801,82	64000,00
802,26	64000,00
802,71	64000,00
803,15	64000,00
803,59	64000,00
804,03	64000,00
804,48	64000,00
804,92	64000,00
805,36	64000,00
805,80	64000,00
806,25	64000,00
806,69	64000,00
807,13	64000,00
807,57	64000,00
808,01	64000,00
808,46	64000,00
808,90	64000,00
809,34	64000,00
809,78	64000,00
810,23	64000,00
810,67	64000,00
811,11	64000,00
811,55	64000,00
811,99	64000,00
812,44	64000,00
812,88	64000,00
813,32	64000,00
813,76	64000,00
814,20	64000,00
814,64	64000,00
815,09	64000,00
815,53	64000,00
815,97	64000,00
816,41	64000,00
816,85	64000,00
817,29	64000,00
817,74	64000,00
818,18	64000,00
818,62	64000,00
819,06	64000,00
819,50	64000,00
819,94	64000,00
820,39	64000,00
820,83	64000,00
821,27	64000,00
821,71	64000,00
822,15	64000,00
822,59	64000,00
823,03	64000,00
823,47	64000,00
823,92	64000,00
824,36	64000,00
824,80	64000,00
825,24	64000,00
825,68	64000,00
826,12	64000,00
826,56	64000,00
827,00	64000,00
827,44	64000,00
827,88	64000,00
828,33	64000,00
828,77	64000,00
829,21	64000,00
829,65	64000,00
830,09	64000,00
830,53	64000,00
830,97	64000,00
831,41	64000,00
831,85	64000,00
832,29	64000,00
832,73	64000,00
833,17	64000,00
833,61	64000,00
834,05	64000,00
834,49	64000,00
834,93	64000,00
835,37	64000,00
835,82	64000,00
836,26	64000,00
836,70	64000,00
837,14	64000,00
837,58	64000,00
838,02	64000,00
838,46	64000,00
838,90	64000,00
839,34	64000,00
839,78	64000,00
840,22	64000,00
840,66	64000,00
841,10	64000,00
841,54	64000,00
841,98	64000,00
842,42	64000,00
842,86	64000,00
843,30	64000,00
843,74	64000,00
844,18	64000,00
844,62	64000,00
845,06	64000,00
845,50	64000,00
845,94	64000,00
846,37	64000,00
846,81	64000,00
847,25	64000,00
847,69	64000,00
848,13	64000,00
848,57	64000,00
849,01	64000,00
849,45	64000,00
849,89	64000,00
850,33	64000,00
850,77	64000,00
851,21	64000,00
851,65	64000,00
852,09	64000,00
852,53	64000,00
852,97	64000,00
853,40	64000,00
853,84	64000,00
854,28	64000,00
854,72	64000,00
855,16	64000,00
855,60	64000,00
856,04	64000,00
856,48	64000,00
856,92	64000,00
857,36	64000,00
857,79	64000,00
858,23	64000,00
858,67	64000,00
859,11	64000,00
859,55	64000,00
859,99	64000,00
860,43	64000,00
860,87	64000,00
861,30	64000,00
861,74	64000,00
862,18	64000,00
862,62	64000,00
863,06	64000,00
863,50	64000,00
863,94	64000,00
864,37	64000,00
864,81	64000,00
865,25	64000,00
865,69	64000,00
866,13	64000,00
866,57	64000,00
867,00	64000,00
867,44	64000,00
867,88	64000,00
868,32	64000,00
868,76	64000,00
869,19	64000,00
869,63	64000,00
870,07	64000,00
870,51	64000,00
870,95	64000,00
871,38	64000,00
871,82	64000,00
872,26	64000,00
872,70	64000,00
873,14	64000,00
873,57	64000,00
874,01	64000,00
874,45	64000,00
874,89	64000,00
875,32	64000,00
875,76	64000,00
876,20	64000,00
876,64	64000,00
877,07	64000,00
877,51	64000,00
877,95	64000,00
878,39	64000,00
878,82	64000,00
879,26	64000,00
879,70	64000,00
880,14	64000,00
880,57	64000,00
881,01	64000,00
881,45	64000,00
881,89	64000,00
882,32	64000,00
882,76	64000,00
883,20	64000,00
883,63	64000,00
884,07	64000,00
884,51	64000,00
884,94	64000,00
885,38	64000,00
885,82	64000,00
886,26	64000,00
886,69	64000,00
887,13	64000,00
887,57	64000,00
888,00	64000,00
888,44	64000,00
888,88	64000,00
889,31	64000,00
889,75	64000,00
890,19	64000,00
890,62	64000,00
891,06	64000,00
891,50	64000,00
891,93	64000,00
892,37	64000,00
892,81	64000,00
893,24	64000,00
893,68	64000,00
894,11	64000,00
894,55	64000,00
894,99	64000,00
895,42	64000,00
895,86	64000,00
896,30	64000,00
896,73	64000,00
897,17	64000,00
897,60	64000,00
898,04	64000,00
898,48	64000,00
898,91	64000,00
899,35	64000,00
899,78	64000,00
900,22	64000,00
900,66	64000,00
901,09	64000,00
901,53	64000,00
901,96	64000,00
902,40	64000,00
902,84	64000,00
903,27	64000,00
903,71	64000,00
904,14	64000,00
904,58	64000,00
905,01	64000,00
905,45	64000,00
905,88	64000,00
906,32	64000,00
906,76	64000,00
907,19	64000,00
907,63	64000,00
908,06	64000,00
908,50	64000,00
908,93	64000,00
909,37	64000,00
909,80	64000,00
910,24	64000,00
910,67	64000,00
911,11	64000,00
911,54	64000,00
911,98	64000,00
912,41	64000,00
912,85	64000,00
913,28	64000,00
913,72	64000,00
914,15	64000,00
914,59	64000,00
915,02	64000,00
915,46	64000,00
915,89	64000,00
916,33	64000,00
916,76	64000,00
917,20	64000,00
917,63	64000,00
918,07	64000,00
918,50	64000,00
918,94	64000,00
919,37	64000,00
919,81	64000,00
920,24	64000,00
920,67	64000,00
921,11	64000,00
921,54	64000,00
921,98	64000,00
922,41	64000,00
922,85	64000,00
923,28	64000,00
923,72	64000,00
924,15	64000,00
924,58	64000,00
925,02	64000,00
925,45	64000,00
925,89	64000,00
926,32	64000,00
926,75	64000,00
927,19	64000,00
927,62	64000,00
928,06	64000,00
928,49	64000,00
928,92	64000,00
929,36	64000,00
929,79	64000,00
930,23	64000,00
930,66	64000,00
931,09	64000,00
931,53	64000,00
931,96	64000,00
932,39	64000,00
932,83	64000,00
933,26	64000,00
933,70	64000,00
934,13	64000,00
934,56	64000,00
935,00	64000,00
935,43	64000,00
935,86	64000,00
936,30	64000,00
936,73	64000,00
937,16	64000,00
937,60	64000,00
938,03	64000,00
938,46	64000,00
938,90	64000,00
939,33	64000,00
939,76	64000,00
940,19	64000,00
940,63	64000,00
941,06	64000,00
941,49	64000,00
941,93	64000,00
942,36	64000,00
942,79	64000,00
943,23	64000,00
943,66	64000,00
944,09	64000,00
944,52	64000,00
944,96	64000,00
945,39	64000,00
945,82	64000,00
946,26	64000,00
946,69	64000,00
947,12	64000,00
947,55	64000,00
947,99	64000,00
948,42	64000,00
948,85	64000,00
949,28	64000,00
949,72	64000,00
950,15	64000,00
950,58	64000,00
951,01	64000,00
951,45	64000,00
951,88	64000,00
952,31	64000,00
952,74	64000,00
953,17	64000,00
953,61	64000,00
954,04	64000,00
954,47	64000,00
954,90	64000,00
955,33	64000,00
955,77	64000,00
956,20	64000,00
956,63	64000,00
957,06	64000,00
957,49	64000,00
957,93	64000,00
958,36	64000,00
958,79	64000,00
959,22	64000,00
959,65	64000,00
960,08	64000,00
960,52	64000,00
960,95	64000,00
961,38	64000,00
961,81	64000,00
962,24	64000,00
962,67	64000,00
963,11	64000,00
963,54	64000,00
963,97	64000,00
964,40	64000,00
964,83	64000,00
965,26	64000,00
965,69	64000,00
966,13	64000,00
966,56	64000,00
966,99	64000,00
967,42	64000,00
967,85	64000,00
968,28	64000,00
968,71	64000,00
969,14	64000,00
969,57	64000,00
970,01	64000,00
970,44	64000,00
970,87	64000,00
971,30	64000,00
971,73	64000,00
972,16	64000,00
972,59	64000,00
973,02	64000,00
973,45	64000,00
973,88	64000,00
974,31	64000,00
974,74	64000,00
975,17	64000,00
975,61	64000,00
976,04	64000,00
976,47	64000,00
976,90	64000,00
977,33	64000,00
977,76	64000,00
978,19	64000,00
978,62	64000,00
979,05	64000,00
979,48	64000,00
979,91	64000,00
980,34	64000,00
980,77	64000,00
981,20	64000,00
981,63	64000,00
982,06	64000,00
982,49	64000,00
982,92	64000,00
983,35	64000,00
983,78	64000,00
984,21	64000,00
984,64	64000,00
985,07	64000,00
985,50	64000,00
985,93	64000,00
986,36	64000,00
986,79	64000,00
987,22	64000,00
987,65	64000,00
988,08	64000,00
988,51	64000,00
988,94	64000,00
989,37	64000,00
989,80	64000,00
990,23	64000,00
990,66	64000,00
991,09	64000,00
991,51	64000,00
991,94	64000,00
992,37	64000,00
992,80	64000,00
993,23	64000,00
993,66	64000,00
994,09	64000,00
994,52	64000,00
994,95	64000,00
995,38	64000,00
995,81	64000,00
996,24	64000,00
996,67	64000,00
997,09	64000,00
997,52	64000,00
997,95	64000,00
998,38	64000,00
998,81	64000,00
999,24	64000,00
999,67	64000,00
1000,10	64000,00
1000,53	64000,00
1000,95	64000,00
1001,38	64000,00
1001,81	64000,00
1002,24	64000,00
1002,67	64000,00
1003,10	64000,00
1003,53	64000,00
1003,95	64000,00
1004,38	64000,00
1004,81	64000,00
1005,24	64000,00
1005,67	64000,00
1006,10	64000,00
1006,52	64000,00
1006,95	64000,00
1007,38	64000,00
1007,81	64000,00
1008,24	64000,00
1008,67	64000,00
1009,09	64000,00
1009,52	64000,00
1009,95	64000,00
1010,38	64000,00
1010,81	64000,00
1011,23	64000,00
1011,66	64000,00
1012,09	64000,00
1012,52	64000,00
1012,95	64000,00
1013,37	64000,00
1013,80	64000,00
1014,23	64000,00
1014,66	64000,00
1015,08	64000,00
1015,51	64000,00
1015,94	64000,00
1016,37	64000,00
1016,80	64000,00
1017,22	64000,00
1017,65	64000,00
1018,08	64000,00
1018,51	64000,00
1018,93	64000,00
1019,36	64000,00
1019,79	64000,00
1020,21	64000,00
1020,64	64000,00
1021,07	64000,00
1021,50	64000,00
1021,92	64000,00
1022,35	64000,00
1022,78	64000,00
1023,21	64000,00
1023,63	64000,00
1024,06	64000,00
1024,49	64000,00
1024,91	64000,00
1025,34	64000,00
1025,77	64000,00
1026,19	64000,00
1026,62	64000,00
1027,05	64000,00
1027,47	64000,00
1027,90	64000,00
1028,33	64000,00
1028,75	64000,00
1029,18	64000,00
1029,61	64000,00
1030,03	64000,00
1030,46	64000,00
1030,89	64000,00
1031,31	64000,00
1031,74	64000,00
1032,17	64000,00
1032,59	64000,00
1033,02	64000,00
1033,45	64000,00
1033,87	64000,00
1034,30	64000,00
1034,73	64000,00
1035,15	64000,00
1035,58	64000,00
1036,00	64000,00
1036,43	64000,00
1036,86	64000,00
1037,28	64000,00
1037,71	64000,00
1038,13	64000,00
1038,56	64000,00
1038,99	64000,00
1039,41	64000,00
1039,84	64000,00
1040,26	64000,00
1040,69	64000,00
1041,11	64000,00
1041,54	64000,00
1041,97	64000,00
1042,39	64000,00
1042,82	64000,00
1043,24	64000,00
1043,67	64000,00
1044,09	64000,00
1044,52	64000,00
1044,95	64000,00
1045,37	64000,00
1045,80	64000,00
1046,22	64000,00
1046,65	64000,00
1047,07	64000,00
1047,50	64000,00
1047,92	64000,00
1048,35	64000,00
1048,77	64000,00
1049,20	64000,00
1049,62	64000,00
1050,05	64000,00
1050,47	64000,00
1050,90	64000,00
1051,32	64000,00
1051,75	64000,00
1052,17	64000,00
1052,60	64000,00
1053,02	64000,00
1053,45	64000,00
1053,87	64000,00
1054,30	64000,00
1054,72	64000,00
1055,15	64000,00
1055,57	64000,00
1056,00	64000,00
1056,42	64000,00
1056,85	64000,00
1057,27	64000,00
1057,70	64000,00
1058,12	64000,00
1058,54	64000,00
1058,97	64000,00
1059,39	64000,00
1059,82	64000,00
1060,24	64000,00
1060,67	64000,00
1061,09	64000,00
1061,51	64000,00
1061,94	64000,00
1062,36	64000,00
1062,79	64000,00
1063,21	64000,00
1063,64	64000,00
1064,06	64000,00
1064,48	64000,00
1064,91	64000,00
1065,33	64000,00
1065,76	64000,00
1066,18	64000,00
1066,60	64000,00
1067,03	64000,00
1067,45	64000,00
1067,87	64000,00
1068,30	64000,00
1068,72	64000,00
1069,15	64000,00
1069,57	64000,00
1069,99	64000,00
1070,42	64000,00
1070,84	64000,00
1071,26	63997,20
1071,69	62995,40
1072,11	62895,50
1072,53	61898,30
1072,96	61243,60
1073,38	60662,00
1073,80	61150,70
1074,23	60369,60
1074,65	59737,20
1075,07	59885,40
1075,50	59713,80
1075,92	59741,10
1076,34	59252,40
1076,77	58916,30
1077,19	58972,10
1077,61	59024,20
1078,04	58113,50
1078,46	58008,00
1078,88	57648,00
1079,30	55714,10
1079,73	55458,20
1080,15	54451,80
1080,57	53722,50
1081,00	53102,70
1081,42	52202,70
1081,84	51571,70
1082,26	51246,10
1082,69	50485,50
1083,11	50062,90
1083,53	49608,00
1083,95	49233,50
1084,38	49199,70
1084,80	48549,80
1085,22	48079,80
1085,64	48494,80
1086,07	47393,60
1086,49	47384,50
1086,91	47451,70
1087,33	46629,20
1087,76	47335,60
1088,18	56778,30
1088,60	46943,60
1089,02	46060,60
1089,45	45827,10
1089,87	45430,70
1090,29	45489,80
1090,71	44420,40
1091,13	43460,80
1091,56	42927,70
1091,98	42276,30
1092,40	41465,80
1092,82	41175,20
1093,24	40332,20
1093,66	40006,90
1094,09	39368,30
1094,51	39066,40
1094,93	38513,30
1095,35	38273,20
1095,77	37693,60
1096,19	37702,20
1096,62	37542,30
1097,04	36718,40
1097,46	36835,50
1097,88	36471,20
1098,30	36729,00
1098,72	36510,60
1099,15	36157,40
1099,57	35722,20
1099,99	35341,70
1100,41	34705,70
1100,83	34367,00
1101,25	33695,30
1101,67	33139,80
1102,09	32098,80
1102,52	31614,20
1102,94	31271,50
1103,36	30909,30
1103,78	30633,20
1104,20	30145,80
1104,62	30948,20
1105,04	29166,50
1105,46	29971,10
1105,88	29727,40
1106,30	29403,50
1106,73	29408,10
1107,15	28357,90
1107,57	28231,80
1107,99	28782,20
1108,41	27209,20
1108,83	27363,50
1109,25	26708,70
1109,67	26216,80
1110,09	25029,00
1110,51	25130,00
1110,93	24553,50
1111,35	24651,40
1111,77	24271,70
1112,19	24279,60
1112,61	23948,20
1113,03	23957,60
1113,45	23052,10
1113,87	22183,00
1114,29	21889,30
1114,71	21460,60
1115,13	20584,60
1115,55	20675,50
1115,98	20200,50
1116,40	18992,90
1116,82	17773,70
1117,24	16479,10
1117,66	15904,40
1118,08	1900,50
1118,50	2224,40
1118,91	2193,10
1119,33	2193,00
>>>>>End Processed Spectral Data<<<<<
