SpectraSuite Data File
++++++++++++++++++++++++++++++++++++
Date: Wed Feb 13 13:34:19 EET 2013
User: OO Maya
Dark Spectrum Present: No
Reference Spectrum Present: No
Number of Sampled Component Spectra: 1
Spectrometers: MAYP11278
Integration Time (usec): 6000000 (MAYP11278)
Spectra Averaged: 10 (MAYP11278)
Boxcar Smoothing: 0 (MAYP11278)
Correct for Electrical Dark: No (MAYP11278)
Strobe/Lamp Enabled: No (MAYP11278)
Correct for Detector Non-linearity: No (MAYP11278)
Correct for Stray Light: No (MAYP11278)
Number of Pixels in Processed Spectrum: 2068
>>>>>Begin Processed Spectral Data<<<<<
188,05	2290,30
188,53	2214,50
189,01	2184,40
189,49	2183,10
189,96	8591,30
190,44	9276,00
190,92	8993,20
191,40	9095,70
191,88	9560,00
192,36	9104,80
192,83	8855,70
193,31	8649,30
193,79	9123,70
194,27	9014,80
194,75	9291,00
195,23	9003,20
195,70	9577,80
196,18	8979,90
196,66	9109,40
197,14	10524,90
197,62	9190,70
198,09	8763,80
198,57	8993,10
199,05	8901,20
199,53	9337,00
200,01	9592,50
200,48	9049,40
200,96	9089,50
201,44	9547,20
201,92	9510,30
202,39	9531,80
202,87	8778,10
203,35	9394,30
203,83	8819,20
204,31	9601,90
204,78	9818,60
205,26	8966,40
205,74	8958,40
206,22	9901,90
206,69	9158,40
207,17	9412,00
207,65	10570,10
208,13	9317,90
208,60	9608,40
209,08	9157,20
209,56	9720,50
210,04	9602,20
210,51	9239,00
210,99	9224,40
211,47	9477,10
211,94	9299,30
212,42	8956,20
212,90	10235,90
213,38	9558,20
213,85	9101,60
214,33	10175,90
214,81	9490,40
215,29	10055,50
215,76	9500,80
216,24	9687,80
216,72	9636,20
217,19	9658,10
217,67	9046,80
218,15	9228,80
218,62	9891,30
219,10	8789,00
219,58	9014,40
220,05	9065,90
220,53	9355,40
221,01	9968,80
221,49	9110,70
221,96	9809,50
222,44	9061,10
222,92	9780,90
223,39	9163,00
223,87	9774,30
224,35	9330,50
224,82	9151,10
225,30	8948,80
225,78	9327,00
226,25	9030,70
226,73	9416,50
227,21	9846,70
227,68	9374,50
228,16	9560,00
228,63	9696,70
229,11	9612,00
229,59	9272,90
230,06	9255,70
230,54	9213,20
231,02	9700,60
231,49	9785,90
231,97	9472,90
232,45	9480,30
232,92	9018,70
233,40	9447,40
233,87	9512,20
234,35	11165,60
234,83	9561,40
235,30	9135,80
235,78	9048,60
236,25	8806,30
236,73	9756,00
237,21	10530,20
237,68	9198,10
238,16	9492,00
238,63	9553,40
239,11	9488,20
239,59	9342,70
240,06	8879,70
240,54	9729,80
241,01	10016,20
241,49	9510,20
241,96	9363,70
242,44	9827,90
242,92	9961,80
243,39	8967,20
243,87	9050,00
244,34	9800,40
244,82	10160,50
245,29	9367,20
245,77	10016,00
246,24	9922,60
246,72	9191,60
247,20	9419,50
247,67	9500,20
248,15	9586,00
248,62	9645,40
249,10	8738,70
249,57	9497,60
250,05	9800,30
250,52	9594,20
251,00	10118,00
251,47	9466,70
251,95	10397,50
252,42	10159,60
252,90	9183,40
253,37	10063,30
253,85	9551,70
254,32	9330,30
254,80	9569,60
255,27	9617,50
255,75	9944,30
256,22	9146,10
256,70	9582,80
257,17	9804,00
257,65	10032,50
258,12	10970,00
258,60	9497,10
259,07	9225,80
259,55	9587,00
260,02	9789,30
260,50	10287,80
260,97	9405,10
261,45	9228,00
261,92	10009,60
262,40	9103,10
262,87	9652,00
263,35	9364,30
263,82	8940,90
264,30	9803,90
264,77	10029,20
265,25	9286,80
265,72	9543,10
266,19	9722,50
266,67	9855,60
267,14	9376,20
267,62	9429,30
268,09	9546,90
268,57	9676,40
269,04	8817,60
269,51	9144,00
269,99	9215,00
270,46	9824,80
270,94	10004,00
271,41	9334,90
271,89	9508,20
272,36	8918,90
272,83	9009,10
273,31	8654,90
273,78	9458,80
274,26	11279,40
274,73	9788,20
275,20	9815,60
275,68	9208,90
276,15	9412,10
276,63	9663,90
277,10	9860,90
277,57	8981,40
278,05	9403,00
278,52	9006,60
279,00	11595,20
279,47	9320,50
279,94	9247,70
280,42	11474,10
280,89	9913,00
281,36	11066,70
281,84	9244,40
282,31	10035,30
282,78	9339,10
283,26	9407,20
283,73	9777,00
284,21	9122,50
284,68	9035,30
285,15	9885,50
285,63	9453,80
286,10	9575,10
286,57	9657,20
287,05	8882,30
287,52	9701,40
287,99	10157,60
288,47	9282,40
288,94	9891,30
289,41	8645,30
289,89	10220,50
290,36	9161,30
290,83	9713,30
291,30	9201,10
291,78	9689,30
292,25	10629,80
292,72	9232,70
293,20	10059,90
293,67	9303,80
294,14	9805,10
294,62	9746,10
295,09	9172,70
295,56	9574,50
296,03	9626,80
296,51	10459,90
296,98	10311,90
297,45	9859,30
297,93	9758,60
298,40	9684,00
298,87	9340,60
299,34	10275,60
299,82	9437,90
300,29	9782,40
300,76	9272,50
301,23	9972,60
301,71	10026,80
302,18	9917,40
302,65	9074,70
303,12	9892,20
303,60	9980,70
304,07	9154,90
304,54	9244,20
305,01	9097,70
305,49	9633,10
305,96	9760,60
306,43	9662,60
306,90	9826,60
307,38	9365,00
307,85	9311,70
308,32	9701,50
308,79	9323,10
309,27	9989,20
309,74	9991,60
310,21	9777,40
310,68	9618,70
311,15	9780,60
311,63	9268,70
312,10	10003,80
312,57	9508,90
313,04	10473,20
313,51	9270,20
313,99	9422,80
314,46	9664,20
314,93	9332,20
315,40	9234,20
315,87	9981,10
316,34	9882,10
316,82	9619,90
317,29	9850,10
317,76	9593,30
318,23	10957,60
318,70	9562,00
319,17	9488,00
319,65	8988,70
320,12	9767,30
320,59	10450,80
321,06	9924,10
321,53	9390,10
322,00	8771,30
322,48	9054,30
322,95	10413,00
323,42	9424,80
323,89	10735,70
324,36	8960,20
324,83	9698,40
325,30	9410,70
325,78	9319,30
326,25	9447,20
326,72	9359,40
327,19	9748,20
327,66	9781,60
328,13	9787,10
328,60	9580,10
329,07	9470,70
329,54	9379,20
330,02	9356,00
330,49	9126,70
330,96	9938,80
331,43	9755,20
331,90	10417,70
332,37	9222,60
332,84	10639,00
333,31	9916,20
333,78	9785,40
334,25	10226,60
334,72	9601,20
335,20	9817,10
335,67	11445,40
336,14	9081,50
336,61	9503,60
337,08	9391,20
337,55	9711,10
338,02	9374,70
338,49	9406,00
338,96	10406,50
339,43	10065,70
339,90	9008,40
340,37	9219,70
340,84	9133,80
341,31	9740,90
341,78	10043,10
342,25	9322,80
342,72	9707,70
343,19	9979,10
343,67	9616,00
344,14	9396,10
344,61	9539,60
345,08	9188,30
345,55	9571,90
346,02	9801,90
346,49	9339,40
346,96	9188,60
347,43	10373,60
347,90	9319,60
348,37	10086,90
348,84	9644,50
349,31	8933,10
349,78	9583,10
350,25	9948,70
350,72	9549,20
351,19	9165,90
351,66	9678,50
352,13	10473,30
352,60	9646,30
353,07	9446,00
353,54	9631,80
354,01	9820,30
354,48	9660,80
354,94	9919,20
355,41	9715,10
355,88	10396,90
356,35	9280,60
356,82	10352,30
357,29	9133,00
357,76	10697,40
358,23	9924,80
358,70	8914,30
359,17	9111,30
359,64	9308,40
360,11	9347,00
360,58	9942,10
361,05	10314,10
361,52	9450,00
361,99	9470,80
362,46	9479,50
362,93	9432,40
363,39	9488,70
363,86	10762,50
364,33	9814,70
364,80	9259,90
365,27	9826,00
365,74	9293,70
366,21	9035,90
366,68	9675,80
367,15	9523,80
367,62	9572,30
368,09	8874,30
368,55	9068,40
369,02	9928,90
369,49	9037,60
369,96	9938,60
370,43	9714,70
370,90	9317,60
371,37	9276,90
371,84	9724,10
372,31	9221,40
372,77	8884,30
373,24	9257,60
373,71	9535,90
374,18	8955,40
374,65	9142,50
375,12	9687,90
375,59	8809,70
376,05	10229,00
376,52	9353,20
376,99	9036,80
377,46	8973,00
377,93	9649,70
378,40	9614,10
378,86	9539,70
379,33	9528,80
379,80	9436,70
380,27	9828,10
380,74	10289,00
381,21	9508,90
381,67	10288,70
382,14	10225,90
382,61	8921,90
383,08	9676,10
383,55	9323,20
384,02	10075,90
384,48	9465,60
384,95	12280,70
385,42	9573,60
385,89	9331,80
386,36	9348,80
386,82	10364,10
387,29	9153,90
387,76	8947,90
388,23	9936,10
388,69	9746,20
389,16	10101,80
389,63	9215,10
390,10	9776,60
390,57	9673,90
391,03	9834,00
391,50	9706,70
391,97	9634,40
392,44	9680,70
392,90	9427,90
393,37	9432,00
393,84	10751,30
394,31	9523,50
394,77	10129,20
395,24	9184,60
395,71	9887,10
396,18	12049,60
396,64	8928,10
397,11	9733,20
397,58	9929,80
398,05	9027,50
398,51	9524,60
398,98	9287,10
399,45	9070,40
399,92	10060,90
400,38	8985,30
400,85	9435,30
401,32	9369,90
401,78	9708,10
402,25	9625,10
402,72	9531,10
403,18	9153,30
403,65	10217,50
404,12	9379,30
404,59	10172,60
405,05	10472,70
405,52	10169,30
405,99	9091,70
406,45	9913,90
406,92	9808,00
407,39	10631,00
407,85	9500,10
408,32	9570,70
408,79	9820,00
409,25	9003,90
409,72	10075,20
410,19	9119,50
410,65	10152,40
411,12	9141,20
411,59	10075,40
412,05	10526,20
412,52	8737,20
412,99	9758,20
413,45	9237,80
413,92	9732,30
414,39	9828,40
414,85	10374,90
415,32	9437,90
415,78	10376,50
416,25	9636,00
416,72	9587,10
417,18	10524,90
417,65	9682,80
418,12	9439,80
418,58	9631,60
419,05	9589,60
419,51	9937,90
419,98	9178,70
420,45	9984,10
420,91	8973,30
421,38	9489,40
421,84	9218,70
422,31	9775,50
422,78	9227,60
423,24	9389,90
423,71	9759,80
424,17	9927,20
424,64	9429,10
425,11	9895,80
425,57	9508,90
426,04	10110,50
426,50	9315,80
426,97	10196,30
427,43	9897,70
427,90	10034,20
428,37	9054,80
428,83	9993,90
429,30	9770,10
429,76	9559,60
430,23	9677,60
430,69	11264,30
431,16	8993,90
431,62	9416,20
432,09	10408,40
432,55	10027,00
433,02	9531,50
433,48	9234,80
433,95	9540,40
434,42	9398,30
434,88	9866,70
435,35	9019,80
435,81	9819,60
436,28	9494,40
436,74	8973,70
437,21	9963,30
437,67	9680,80
438,14	9588,00
438,60	9325,70
439,07	9404,20
439,53	11691,80
440,00	9698,40
440,46	9976,20
440,93	10134,60
441,39	9121,70
441,86	9372,60
442,32	10840,40
442,79	9118,10
443,25	9647,50
443,72	9630,70
444,18	9038,10
444,64	10320,20
445,11	9813,00
445,57	9528,90
446,04	9541,30
446,50	9755,50
446,97	9376,60
447,43	9522,70
447,90	9260,00
448,36	9194,80
448,83	9809,10
449,29	9817,30
449,75	9460,70
450,22	9156,20
450,68	9108,00
451,15	9210,20
451,61	9570,80
452,08	9877,60
452,54	9089,70
453,00	10085,60
453,47	9456,90
453,93	9358,90
454,40	9549,30
454,86	9827,50
455,32	9306,80
455,79	9580,40
456,25	9963,70
456,72	9216,20
457,18	10184,90
457,64	9426,80
458,11	9412,40
458,57	8959,30
459,04	9582,50
459,50	9463,80
459,96	9536,10
460,43	9323,10
460,89	9068,60
461,36	10288,60
461,82	9940,10
462,28	9166,40
462,75	9011,20
463,21	10135,20
463,67	9394,70
464,14	9621,90
464,60	9635,20
465,06	9080,70
465,53	9223,50
465,99	10004,90
466,45	9503,00
466,92	9754,50
467,38	9761,00
467,84	9351,40
468,31	9642,70
468,77	9740,10
469,23	9488,80
469,70	9124,30
470,16	9659,90
470,62	9576,30
471,09	9330,90
471,55	9386,70
472,01	9160,90
472,48	9395,80
472,94	9407,00
473,40	10233,40
473,87	9416,90
474,33	9249,80
474,79	9453,70
475,25	9021,60
475,72	9697,30
476,18	9494,60
476,64	9694,10
477,11	9418,80
477,57	9594,30
478,03	10260,00
478,49	9627,00
478,96	10034,50
479,42	9093,80
479,88	10425,30
480,35	9751,00
480,81	9623,70
481,27	9215,70
481,73	9413,00
482,20	9577,80
482,66	8951,20
483,12	9348,60
483,58	8862,80
484,05	9411,10
484,51	10284,00
484,97	9667,40
485,43	9553,20
485,89	8822,20
486,36	9431,30
486,82	8817,00
487,28	9714,50
487,74	8978,40
488,21	8947,80
488,67	9225,30
489,13	9575,80
489,59	9487,60
490,05	10049,50
490,52	8956,60
490,98	9623,70
491,44	9007,10
491,90	9199,90
492,36	8817,50
492,83	10023,80
493,29	9623,50
493,75	9518,20
494,21	9124,80
494,67	9311,70
495,14	9242,60
495,60	9092,60
496,06	9500,90
496,52	9241,00
496,98	9414,40
497,44	10356,70
497,91	10015,90
498,37	9113,20
498,83	9632,40
499,29	9297,20
499,75	10787,80
500,21	9506,50
500,67	9189,50
501,14	9404,90
501,60	9242,60
502,06	9743,90
502,52	9443,40
502,98	9414,20
503,44	9451,70
503,90	9690,70
504,37	9192,70
504,83	9682,60
505,29	9626,50
505,75	9091,80
506,21	9455,10
506,67	9907,00
507,13	9454,60
507,59	9773,80
508,05	9629,10
508,51	9205,40
508,98	9050,10
509,44	8895,30
509,90	9284,90
510,36	9476,50
510,82	9218,10
511,28	10143,40
511,74	10095,50
512,20	9064,80
512,66	8819,50
513,12	9071,30
513,58	9682,20
514,04	8640,80
514,51	9963,30
514,97	10403,90
515,43	8842,10
515,89	9554,60
516,35	9993,50
516,81	9947,50
517,27	10762,50
517,73	9644,30
518,19	9518,10
518,65	11338,50
519,11	9381,70
519,57	9189,50
520,03	8962,20
520,49	9103,50
520,95	9578,90
521,41	9758,90
521,87	9902,90
522,33	9473,10
522,79	8940,90
523,25	10441,60
523,71	9963,90
524,17	9304,40
524,63	10302,50
525,09	9810,80
525,55	9717,80
526,01	10165,90
526,47	9588,50
526,93	9500,80
527,39	9340,00
527,85	9352,20
528,31	9881,70
528,77	9815,80
529,23	9355,70
529,69	9041,10
530,15	9758,40
530,61	9770,70
531,07	8792,30
531,53	10038,90
531,99	9429,60
532,45	9466,50
532,91	9489,60
533,37	9709,80
533,83	9342,30
534,29	9004,30
534,75	9403,90
535,21	9245,20
535,67	9615,90
536,12	9209,70
536,58	9719,10
537,04	9051,00
537,50	9747,60
537,96	9444,20
538,42	9495,70
538,88	10337,10
539,34	9793,80
539,80	12463,30
540,26	8853,60
540,72	10397,20
541,18	9576,50
541,63	9029,90
542,09	9760,70
542,55	9701,90
543,01	9273,70
543,47	10902,90
543,93	8950,20
544,39	10509,80
544,85	9833,40
545,31	9302,30
545,76	9332,70
546,22	9942,40
546,68	9479,10
547,14	9716,50
547,60	9758,20
548,06	9675,50
548,52	9398,00
548,98	9357,60
549,43	8995,20
549,89	10734,40
550,35	9387,10
550,81	8992,70
551,27	9662,40
551,73	9557,60
552,19	10447,00
552,64	9625,50
553,10	9103,20
553,56	9711,20
554,02	9387,00
554,48	9041,70
554,93	9683,10
555,39	9591,60
555,85	10439,50
556,31	9654,40
556,77	10182,50
557,23	8807,30
557,68	9645,90
558,14	10723,70
558,60	9233,40
559,06	9382,90
559,52	9081,40
559,97	9147,90
560,43	9096,70
560,89	9501,60
561,35	9377,10
561,81	9434,00
562,26	9220,30
562,72	9156,20
563,18	9600,50
563,64	10116,10
564,09	9105,60
564,55	9553,90
565,01	9318,40
565,47	9391,50
565,92	9562,30
566,38	10108,40
566,84	9362,60
567,30	9246,40
567,75	9516,50
568,21	9939,50
568,67	9201,90
569,13	9443,10
569,58	9844,10
570,04	9505,90
570,50	9443,80
570,96	9879,40
571,41	9821,50
571,87	9417,80
572,33	9542,80
572,78	9673,70
573,24	9194,80
573,70	9233,80
574,16	9522,70
574,61	10164,60
575,07	9901,80
575,53	8976,10
575,98	9625,30
576,44	8648,20
576,90	10097,90
577,36	9334,50
577,81	9361,00
578,27	8920,20
578,73	10214,30
579,18	9348,60
579,64	9252,00
580,10	9587,70
580,55	9626,80
581,01	9388,70
581,47	9503,50
581,92	9588,00
582,38	9458,80
582,84	8961,60
583,29	9389,90
583,75	9632,50
584,21	9361,10
584,66	9833,00
585,12	9229,70
585,57	10913,30
586,03	9408,30
586,49	9265,10
586,94	9411,80
587,40	9418,90
587,86	9970,40
588,31	8931,20
588,77	9715,90
589,22	9407,00
589,68	9113,60
590,14	9638,90
590,59	9793,20
591,05	9220,60
591,51	8928,10
591,96	10210,10
592,42	9293,00
592,87	9576,60
593,33	9442,20
593,78	9966,60
594,24	9484,70
594,70	9406,00
595,15	10205,70
595,61	9378,80
596,06	9023,90
596,52	10296,70
596,98	9884,20
597,43	10101,30
597,89	9599,90
598,34	8901,50
598,80	9588,70
599,25	10226,20
599,71	9166,90
600,16	9788,10
600,62	10088,00
601,08	9762,60
601,53	9876,10
601,99	8844,20
602,44	11090,90
602,90	9267,90
603,35	9513,10
603,81	8892,70
604,26	8774,60
604,72	9760,20
605,17	9265,10
605,63	9809,30
606,08	9596,30
606,54	8834,60
606,99	9508,40
607,45	9246,80
607,90	9493,60
608,36	9890,90
608,81	9474,40
609,27	10813,30
609,72	9938,80
610,18	9420,70
610,63	9231,10
611,09	9564,80
611,54	8969,20
612,00	10406,10
612,45	9790,00
612,91	9531,40
613,36	11164,60
613,82	8968,30
614,27	8919,70
614,73	8939,40
615,18	8982,10
615,64	9402,10
616,09	9447,10
616,54	9033,10
617,00	9323,30
617,45	9426,80
617,91	9917,30
618,36	9146,90
618,82	9318,20
619,27	9331,20
619,72	9937,00
620,18	9338,80
620,63	9853,40
621,09	9999,90
621,54	9400,40
622,00	9923,50
622,45	10185,80
622,90	9965,30
623,36	9251,40
623,81	9148,00
624,27	9992,00
624,72	8848,70
625,17	9507,20
625,63	9560,00
626,08	9137,00
626,54	9463,30
626,99	9606,00
627,44	9016,40
627,90	9816,60
628,35	9833,30
628,81	8740,70
629,26	9443,30
629,71	9434,50
630,17	9103,20
630,62	9757,50
631,07	9321,50
631,53	9832,40
631,98	9681,00
632,43	10001,60
632,89	9141,50
633,34	9247,70
633,79	9101,00
634,25	9262,30
634,70	9032,30
635,15	9260,60
635,61	9148,40
636,06	8826,80
636,51	9457,80
636,97	9371,80
637,42	9067,60
637,87	9839,40
638,33	9934,30
638,78	9259,80
639,23	9423,90
639,69	8978,90
640,14	8721,50
640,59	9567,70
641,05	9938,50
641,50	8845,40
641,95	9295,40
642,40	9265,80
642,86	8754,60
643,31	9233,40
643,76	9777,80
644,22	9124,70
644,67	8978,50
645,12	9212,40
645,57	9006,60
646,03	9485,30
646,48	9445,70
646,93	9621,20
647,38	9851,80
647,84	9492,60
648,29	9635,20
648,74	8911,70
649,19	10057,60
649,65	9655,80
650,10	11825,20
650,55	8967,90
651,00	9068,40
651,46	9206,70
651,91	9462,10
652,36	9003,80
652,81	9387,60
653,27	9170,10
653,72	9058,90
654,17	9425,00
654,62	9590,40
655,07	9295,50
655,53	8917,80
655,98	9836,40
656,43	9060,60
656,88	9433,20
657,33	9657,10
657,79	9732,70
658,24	9021,20
658,69	9496,80
659,14	8963,40
659,59	11893,70
660,05	9131,60
660,50	10006,20
660,95	9293,10
661,40	9046,30
661,85	9312,30
662,30	9025,60
662,76	8671,30
663,21	9609,60
663,66	9207,70
664,11	9291,00
664,56	9376,90
665,01	8880,50
665,47	9463,10
665,92	8868,60
666,37	9485,00
666,82	9434,50
667,27	10790,40
667,72	10116,20
668,17	9046,30
668,62	9606,80
669,08	8988,50
669,53	10634,30
669,98	8582,80
670,43	9009,50
670,88	10006,40
671,33	9406,00
671,78	10246,20
672,23	10751,50
672,69	9406,80
673,14	9422,90
673,59	10077,30
674,04	11291,40
674,49	9541,60
674,94	9552,30
675,39	8774,60
675,84	8863,90
676,29	9470,10
676,74	9276,60
677,19	9262,40
677,64	9213,60
678,10	10832,10
678,55	9031,10
679,00	9242,00
679,45	9418,40
679,90	9147,60
680,35	9430,90
680,80	9468,60
681,25	8494,60
681,70	8594,40
682,15	9206,60
682,60	9430,80
683,05	9693,50
683,50	9648,50
683,95	9483,50
684,40	10165,00
684,85	9641,90
685,30	9452,90
685,75	9577,00
686,20	9298,30
686,65	8955,00
687,10	9447,70
687,55	9129,30
688,00	9502,00
688,45	9335,00
688,90	10926,00
689,35	9782,80
689,80	8686,50
690,25	9299,30
690,70	9334,60
691,15	8792,90
691,60	9413,70
692,05	8748,80
692,50	9446,00
692,95	9305,20
693,40	9741,30
693,85	9614,10
694,30	9375,60
694,75	9434,50
695,20	11957,30
695,65	9452,00
696,10	9556,50
696,55	10461,80
697,00	9330,80
697,45	9143,80
697,90	9675,10
698,35	9022,00
698,80	9876,10
699,24	9789,30
699,69	9052,70
700,14	9255,10
700,59	9799,50
701,04	9809,10
701,49	11686,50
701,94	8868,20
702,39	10219,90
702,84	9105,80
703,29	9228,10
703,74	9554,40
704,19	9299,80
704,63	9183,70
705,08	10071,40
705,53	9950,40
705,98	9871,90
706,43	8851,70
706,88	9670,40
707,33	9439,40
707,78	9286,20
708,22	9557,60
708,67	9865,50
709,12	9497,90
709,57	9190,60
710,02	9342,70
710,47	9412,70
710,92	9140,70
711,37	9720,80
711,81	9508,00
712,26	9550,90
712,71	9036,90
713,16	10556,30
713,61	9352,90
714,06	9445,70
714,50	10156,20
714,95	9949,60
715,40	9309,10
715,85	9446,40
716,30	9237,40
716,75	9220,60
717,19	8923,50
717,64	8798,70
718,09	9668,80
718,54	10425,40
718,99	9008,90
719,43	8858,80
719,88	9418,70
720,33	9263,70
720,78	9137,10
721,23	9494,70
721,67	9139,60
722,12	9656,60
722,57	9286,20
723,02	8878,50
723,47	8704,90
723,91	9403,00
724,36	8723,80
724,81	9633,50
725,26	8722,30
725,70	9278,50
726,15	9344,50
726,60	9457,80
727,05	10447,40
727,49	8966,50
727,94	10105,40
728,39	9657,70
728,84	9211,50
729,28	10083,60
729,73	9123,30
730,18	9871,10
730,63	8910,00
731,07	9416,40
731,52	9604,10
731,97	9512,50
732,41	9549,40
732,86	8962,70
733,31	9722,60
733,76	9503,60
734,20	9057,70
734,65	9831,50
735,10	9701,90
735,54	9421,50
735,99	11007,30
736,44	9057,40
736,89	9443,50
737,33	9823,20
737,78	9701,60
738,23	9419,90
738,67	9326,50
739,12	9432,20
739,57	8812,50
740,01	9998,20
740,46	9532,00
740,91	9019,50
741,35	9632,50
741,80	9719,10
742,25	9401,80
742,69	9383,60
743,14	8935,70
743,59	9008,70
744,03	9352,60
744,48	9950,50
744,92	9876,80
745,37	9419,30
745,82	9846,00
746,26	10195,00
746,71	8451,80
747,16	9013,60
747,60	8790,50
748,05	9591,60
748,49	9294,10
748,94	9188,80
749,39	9575,20
749,83	10936,80
750,28	9399,70
750,73	9352,10
751,17	8808,40
751,62	9165,10
752,06	9197,00
752,51	9290,90
752,95	10498,30
753,40	9138,50
753,85	9174,00
754,29	8803,70
754,74	9258,20
755,18	8894,20
755,63	9285,30
756,07	9428,90
756,52	9982,30
756,97	9186,50
757,41	10080,10
757,86	9423,30
758,30	9345,10
758,75	9348,40
759,19	9253,30
759,64	8938,40
760,08	9285,60
760,53	9572,60
760,98	9345,30
761,42	9644,40
761,87	10133,40
762,31	9219,30
762,76	8863,40
763,20	9158,40
763,65	9805,30
764,09	9397,20
764,54	8873,90
764,98	9082,20
765,43	9583,40
765,87	8977,20
766,32	8830,90
766,76	9061,30
767,21	9407,20
767,65	9355,00
768,10	9566,00
768,54	9780,10
768,99	9235,80
769,43	10461,40
769,88	8920,00
770,32	9247,10
770,77	9041,50
771,21	8845,60
771,65	9626,00
772,10	9441,00
772,54	9554,60
772,99	8735,50
773,43	9192,50
773,88	9111,20
774,32	8573,30
774,77	9271,80
775,21	8962,70
775,65	9463,30
776,10	9325,20
776,54	8909,40
776,99	9247,20
777,43	9183,40
777,88	9631,90
778,32	9634,10
778,76	9165,50
779,21	9454,70
779,65	10988,70
780,10	10181,20
780,54	9356,80
780,99	9895,60
781,43	9605,70
781,87	9010,10
782,32	9476,70
782,76	8870,60
783,20	9205,80
783,65	9658,70
784,09	9877,10
784,54	9270,80
784,98	9196,70
785,42	9239,00
785,87	9032,60
786,31	9730,10
786,75	9969,90
787,20	10016,50
787,64	8906,10
788,09	9100,40
788,53	9485,30
788,97	9056,30
789,42	9248,30
789,86	9101,70
790,30	9428,30
790,75	8908,00
791,19	9070,10
791,63	9996,40
792,08	9160,20
792,52	9347,90
792,96	9086,50
793,41	11854,60
793,85	9874,20
794,29	9444,90
794,74	9503,20
795,18	9408,90
795,62	8935,40
796,06	9607,60
796,51	9284,00
796,95	9369,20
797,39	9124,50
797,84	8924,10
798,28	9382,60
798,72	9873,80
799,16	9536,30
799,61	8973,70
800,05	10310,80
800,49	9564,20
800,94	8948,40
801,38	9557,40
801,82	9443,80
802,26	8981,50
802,71	9929,90
803,15	10347,30
803,59	9725,80
804,03	9499,80
804,48	9278,60
804,92	9159,00
805,36	10305,50
805,80	10684,30
806,25	10439,30
806,69	9792,10
807,13	10557,00
807,57	9196,40
808,01	9383,30
808,46	8876,10
808,90	9648,80
809,34	9378,10
809,78	9046,40
810,23	8987,90
810,67	9650,80
811,11	10156,60
811,55	11351,60
811,99	9189,90
812,44	9112,80
812,88	9705,80
813,32	10390,10
813,76	9869,30
814,20	9435,70
814,64	9782,30
815,09	9698,50
815,53	9542,80
815,97	9191,20
816,41	9029,40
816,85	9132,60
817,29	9770,00
817,74	9385,90
818,18	9930,50
818,62	9125,30
819,06	9738,60
819,50	10014,30
819,94	9164,20
820,39	9620,70
820,83	9216,40
821,27	9395,60
821,71	9020,30
822,15	10277,90
822,59	8969,30
823,03	9490,40
823,47	9482,40
823,92	8922,70
824,36	9463,10
824,80	9353,10
825,24	9522,00
825,68	9545,00
826,12	8969,90
826,56	9213,60
827,00	8524,30
827,44	9406,20
827,88	9760,80
828,33	10070,40
828,77	9108,70
829,21	9844,20
829,65	9583,60
830,09	9110,00
830,53	10248,00
830,97	9181,00
831,41	10703,20
831,85	9917,20
832,29	9750,30
832,73	8825,40
833,17	9329,90
833,61	9318,30
834,05	10144,70
834,49	9733,40
834,93	9351,80
835,37	9065,50
835,82	9916,10
836,26	9298,80
836,70	9580,10
837,14	9239,50
837,58	9930,20
838,02	9106,70
838,46	9043,00
838,90	9525,80
839,34	9407,80
839,78	10282,20
840,22	10621,30
840,66	9512,80
841,10	10105,30
841,54	8650,40
841,98	9085,40
842,42	8840,50
842,86	9189,00
843,30	9794,40
843,74	9414,80
844,18	9744,40
844,62	9339,00
845,06	9028,30
845,50	9648,50
845,94	9289,90
846,37	9740,70
846,81	9128,00
847,25	9032,30
847,69	9430,00
848,13	9062,50
848,57	9197,70
849,01	9166,00
849,45	9654,70
849,89	10027,30
850,33	9741,20
850,77	9294,70
851,21	9861,60
851,65	8990,90
852,09	9547,10
852,53	9970,50
852,97	9175,40
853,40	9161,60
853,84	9811,60
854,28	8887,10
854,72	9853,60
855,16	8829,10
855,60	9132,40
856,04	9980,20
856,48	10237,30
856,92	9345,70
857,36	9611,10
857,79	9482,90
858,23	8916,50
858,67	10059,50
859,11	8603,00
859,55	9008,80
859,99	9184,20
860,43	9246,80
860,87	9466,80
861,30	9752,00
861,74	9095,30
862,18	9333,10
862,62	9550,50
863,06	9110,50
863,50	9123,20
863,94	9763,40
864,37	9063,20
864,81	9334,10
865,25	9304,70
865,69	8762,00
866,13	9296,50
866,57	8689,90
867,00	9743,60
867,44	8968,00
867,88	9549,30
868,32	9274,80
868,76	9060,30
869,19	9587,80
869,63	9389,00
870,07	10165,20
870,51	10813,90
870,95	8855,50
871,38	9250,90
871,82	9400,50
872,26	9106,20
872,70	9515,10
873,14	9666,90
873,57	9384,20
874,01	9969,80
874,45	9846,30
874,89	9184,60
875,32	8950,40
875,76	10006,60
876,20	8631,20
876,64	9504,60
877,07	9320,50
877,51	9332,70
877,95	9362,30
878,39	9332,70
878,82	9521,50
879,26	9215,90
879,70	10271,30
880,14	8988,10
880,57	8899,40
881,01	9190,60
881,45	9390,50
881,89	9742,40
882,32	9273,80
882,76	9282,00
883,20	9267,90
883,63	9276,90
884,07	8960,50
884,51	9675,00
884,94	9420,60
885,38	9631,40
885,82	9881,30
886,26	9170,50
886,69	9009,40
887,13	10349,30
887,57	8868,80
888,00	8989,50
888,44	9311,60
888,88	9163,10
889,31	11037,80
889,75	8762,60
890,19	9790,40
890,62	9100,30
891,06	9639,60
891,50	9580,20
891,93	8749,20
892,37	9060,60
892,81	9222,90
893,24	8980,00
893,68	9178,00
894,11	9548,40
894,55	9204,00
894,99	9777,50
895,42	9199,40
895,86	8964,70
896,30	9487,60
896,73	9581,20
897,17	8967,30
897,60	8850,80
898,04	8912,10
898,48	9446,80
898,91	9913,50
899,35	9018,00
899,78	9026,90
900,22	9083,30
900,66	9730,30
901,09	9649,90
901,53	9140,10
901,96	10382,40
902,40	10566,50
902,84	8957,50
903,27	9140,40
903,71	10353,30
904,14	8999,80
904,58	9556,00
905,01	9108,50
905,45	9254,60
905,88	8810,00
906,32	9947,90
906,76	9378,00
907,19	9844,20
907,63	9480,80
908,06	9197,20
908,50	9714,40
908,93	10231,50
909,37	9191,30
909,80	8801,40
910,24	9494,80
910,67	9521,40
911,11	9206,10
911,54	9031,60
911,98	9198,60
912,41	9448,70
912,85	9170,90
913,28	9589,20
913,72	9591,80
914,15	9275,20
914,59	8864,00
915,02	8896,40
915,46	9173,40
915,89	9089,50
916,33	9793,40
916,76	9167,30
917,20	9963,90
917,63	9121,20
918,07	9840,10
918,50	9038,10
918,94	9272,10
919,37	9267,10
919,81	9595,70
920,24	9711,80
920,67	9329,70
921,11	10294,10
921,54	9627,70
921,98	9158,30
922,41	8913,60
922,85	8851,30
923,28	9484,80
923,72	10129,90
924,15	9663,60
924,58	8703,90
925,02	9649,20
925,45	8931,20
925,89	9718,70
926,32	10543,90
926,75	9215,40
927,19	9721,10
927,62	8779,90
928,06	10561,10
928,49	9334,60
928,92	8855,50
929,36	9827,30
929,79	9186,10
930,23	9500,30
930,66	9799,60
931,09	9038,10
931,53	9564,00
931,96	8602,50
932,39	10286,60
932,83	9834,70
933,26	10838,90
933,70	9262,20
934,13	9928,70
934,56	9864,30
935,00	9672,10
935,43	9565,60
935,86	8858,00
936,30	9273,60
936,73	8979,70
937,16	9561,70
937,60	8885,50
938,03	9731,80
938,46	9130,00
938,90	9205,30
939,33	9679,50
939,76	8928,10
940,19	9361,50
940,63	9833,50
941,06	10509,80
941,49	9142,90
941,93	9885,20
942,36	8980,70
942,79	9187,70
943,23	9729,00
943,66	8847,60
944,09	8791,80
944,52	9709,70
944,96	9132,80
945,39	9657,00
945,82	9338,00
946,26	9480,10
946,69	9513,40
947,12	10011,90
947,55	9213,00
947,99	9357,20
948,42	9608,20
948,85	8790,40
949,28	8806,40
949,72	8870,40
950,15	10813,20
950,58	10032,50
951,01	9197,70
951,45	9119,10
951,88	9576,40
952,31	8739,10
952,74	9801,00
953,17	9161,20
953,61	10400,40
954,04	8816,90
954,47	9049,70
954,90	9092,70
955,33	9004,20
955,77	9194,00
956,20	9615,70
956,63	8929,70
957,06	9596,50
957,49	10976,50
957,93	8863,50
958,36	9676,40
958,79	9427,10
959,22	9106,80
959,65	9094,60
960,08	9043,50
960,52	8603,20
960,95	9123,00
961,38	9613,80
961,81	9599,50
962,24	9878,40
962,67	9719,30
963,11	9023,00
963,54	9382,50
963,97	9148,40
964,40	9338,70
964,83	9225,50
965,26	9024,50
965,69	9782,90
966,13	9118,40
966,56	9280,10
966,99	9639,60
967,42	9005,70
967,85	9060,80
968,28	9914,70
968,71	11706,60
969,14	9702,50
969,57	9244,60
970,01	9568,20
970,44	8933,40
970,87	9123,80
971,30	9574,00
971,73	9171,60
972,16	9355,40
972,59	8793,60
973,02	9009,80
973,45	9118,70
973,88	9617,00
974,31	9234,60
974,74	9713,50
975,17	9425,10
975,61	9059,90
976,04	9089,00
976,47	8964,20
976,90	9384,20
977,33	8893,00
977,76	9725,00
978,19	9401,80
978,62	9187,70
979,05	9190,70
979,48	9150,80
979,91	9805,40
980,34	9658,30
980,77	9080,20
981,20	9483,10
981,63	9862,80
982,06	9345,30
982,49	9320,80
982,92	9117,00
983,35	9206,90
983,78	9019,90
984,21	9867,20
984,64	9599,30
985,07	8815,40
985,50	8542,50
985,93	9220,00
986,36	9648,10
986,79	9133,20
987,22	9014,50
987,65	9594,10
988,08	9327,70
988,51	9388,20
988,94	9272,40
989,37	9481,60
989,80	9298,30
990,23	9165,00
990,66	9440,40
991,09	9323,10
991,51	9516,20
991,94	10269,50
992,37	9204,60
992,80	8979,70
993,23	9311,00
993,66	8989,50
994,09	9192,70
994,52	9585,40
994,95	9709,60
995,38	9413,30
995,81	9404,30
996,24	8715,20
996,67	8806,50
997,09	8532,90
997,52	9946,20
997,95	9681,10
998,38	9070,50
998,81	9434,20
999,24	8930,90
999,67	10163,80
1000,10	9367,30
1000,53	9389,50
1000,95	10033,90
1001,38	8912,80
1001,81	9443,70
1002,24	9627,70
1002,67	9348,00
1003,10	9436,10
1003,53	9292,20
1003,95	9620,70
1004,38	8923,50
1004,81	9569,30
1005,24	9447,80
1005,67	10019,10
1006,10	9297,30
1006,52	8790,10
1006,95	9561,40
1007,38	9276,90
1007,81	8982,80
1008,24	8784,90
1008,67	9226,40
1009,09	9087,00
1009,52	11427,40
1009,95	9857,40
1010,38	9816,30
1010,81	9483,20
1011,23	9588,60
1011,66	9872,50
1012,09	9191,10
1012,52	9663,30
1012,95	9382,70
1013,37	9554,10
1013,80	9552,80
1014,23	8913,50
1014,66	10029,80
1015,08	8679,10
1015,51	9749,70
1015,94	9028,60
1016,37	9370,80
1016,80	8968,80
1017,22	9527,30
1017,65	9155,70
1018,08	9220,20
1018,51	9308,70
1018,93	8621,50
1019,36	10966,90
1019,79	10001,20
1020,21	9728,50
1020,64	9168,90
1021,07	9321,00
1021,50	9518,20
1021,92	9517,30
1022,35	9622,50
1022,78	9310,60
1023,21	11384,90
1023,63	9931,00
1024,06	9818,20
1024,49	9726,50
1024,91	9489,60
1025,34	9427,60
1025,77	9671,70
1026,19	8968,50
1026,62	8932,10
1027,05	10593,00
1027,47	9697,30
1027,90	9571,90
1028,33	9416,60
1028,75	9504,10
1029,18	9042,10
1029,61	10607,00
1030,03	9436,70
1030,46	9315,40
1030,89	9486,90
1031,31	10110,90
1031,74	8815,40
1032,17	9431,00
1032,59	9754,30
1033,02	9121,10
1033,45	9882,80
1033,87	8957,50
1034,30	8971,80
1034,73	9535,00
1035,15	9786,80
1035,58	9161,30
1036,00	10260,30
1036,43	9072,70
1036,86	9101,40
1037,28	9434,00
1037,71	8764,10
1038,13	9757,00
1038,56	9866,40
1038,99	9754,60
1039,41	9924,20
1039,84	10210,60
1040,26	9293,80
1040,69	9236,70
1041,11	9540,90
1041,54	9208,80
1041,97	10046,60
1042,39	10079,40
1042,82	9731,60
1043,24	9914,90
1043,67	9437,30
1044,09	9832,10
1044,52	9024,20
1044,95	9271,80
1045,37	9241,10
1045,80	8839,20
1046,22	9384,90
1046,65	9686,50
1047,07	9060,20
1047,50	9600,00
1047,92	9831,20
1048,35	9007,00
1048,77	9892,70
1049,20	9708,70
1049,62	9857,60
1050,05	9256,30
1050,47	9310,40
1050,90	9672,20
1051,32	9888,80
1051,75	10045,50
1052,17	10004,90
1052,60	9459,80
1053,02	9668,00
1053,45	8478,70
1053,87	9424,10
1054,30	8632,60
1054,72	9259,00
1055,15	9124,60
1055,57	9556,80
1056,00	9722,10
1056,42	10440,40
1056,85	9987,70
1057,27	9938,80
1057,70	9467,40
1058,12	11613,10
1058,54	8946,50
1058,97	9682,60
1059,39	9734,70
1059,82	9254,00
1060,24	9290,10
1060,67	9197,30
1061,09	9830,80
1061,51	9430,00
1061,94	9300,30
1062,36	9836,90
1062,79	10123,00
1063,21	9567,00
1063,64	9312,00
1064,06	9061,60
1064,48	9836,30
1064,91	9878,00
1065,33	9249,10
1065,76	9080,30
1066,18	8813,20
1066,60	9899,70
1067,03	9435,00
1067,45	9370,60
1067,87	9527,70
1068,30	9224,60
1068,72	10372,00
1069,15	9374,60
1069,57	9165,30
1069,99	8817,50
1070,42	9897,90
1070,84	9980,70
1071,26	9916,30
1071,69	9297,70
1072,11	9745,10
1072,53	9159,30
1072,96	8986,10
1073,38	8876,50
1073,80	9642,10
1074,23	9175,90
1074,65	8838,90
1075,07	9151,80
1075,50	9235,70
1075,92	9465,30
1076,34	9100,20
1076,77	9044,60
1077,19	9270,40
1077,61	9889,60
1078,04	9197,70
1078,46	9802,10
1078,88	10178,10
1079,30	8589,50
1079,73	9539,40
1080,15	9135,80
1080,57	9342,40
1081,00	9656,80
1081,42	9372,00
1081,84	9223,40
1082,26	9618,30
1082,69	9328,60
1083,11	9284,60
1083,53	9422,50
1083,95	9418,30
1084,38	9911,40
1084,80	9381,00
1085,22	9191,80
1085,64	10022,40
1086,07	9037,20
1086,49	9223,70
1086,91	9559,70
1087,33	8673,40
1087,76	9721,70
1088,18	21166,80
1088,60	9580,50
1089,02	9095,80
1089,45	9132,70
1089,87	9247,90
1090,29	9873,50
1090,71	9291,40
1091,13	8918,40
1091,56	9219,00
1091,98	9240,30
1092,40	9039,70
1092,82	9275,50
1093,24	9084,10
1093,66	9395,00
1094,09	9218,40
1094,51	9420,40
1094,93	9221,10
1095,35	9439,10
1095,77	9018,40
1096,19	9342,50
1096,62	9590,50
1097,04	8880,00
1097,46	9330,30
1097,88	9006,10
1098,30	9640,70
1098,72	9641,40
1099,15	9557,00
1099,57	9315,20
1099,99	9155,20
1100,41	8973,70
1100,83	9160,90
1101,25	9147,20
1101,67	9394,50
1102,09	8848,70
1102,52	9054,60
1102,94	9228,90
1103,36	9283,10
1103,78	9454,90
1104,20	9154,80
1104,62	10178,20
1105,04	8473,10
1105,46	9346,70
1105,88	9270,40
1106,30	8950,10
1106,73	9164,20
1107,15	8431,80
1107,57	8676,70
1107,99	9770,80
1108,41	8678,70
1108,83	9505,00
1109,25	9447,20
1109,67	9428,70
1110,09	8545,10
1110,51	9002,90
1110,93	8553,10
1111,35	8977,40
1111,77	8567,30
1112,19	8721,60
1112,61	8468,40
1113,03	8907,50
1113,45	8680,10
1113,87	8777,30
1114,29	9085,70
1114,71	9270,90
1115,13	8862,50
1115,55	8999,60
1115,98	8850,00
1116,40	9181,80
1116,82	9121,90
1117,24	8802,20
1117,66	8621,90
1118,08	2050,90
1118,50	2195,10
1118,91	2184,80
1119,33	2185,20
>>>>>End Processed Spectral Data<<<<<
