SpectraSuite Data File
++++++++++++++++++++++++++++++++++++
Date: Mon Oct 13 13:55:02 EEST 2014
User: OO Maya
Dark Spectrum Present: No
Reference Spectrum Present: No
Number of Sampled Component Spectra: 1
Spectrometers: MAYP11278
Integration Time (usec): 5000000 (MAYP11278)
Spectra Averaged: 10 (MAYP11278)
Boxcar Smoothing: 0 (MAYP11278)
Correct for Electrical Dark: No (MAYP11278)
Strobe/Lamp Enabled: No (MAYP11278)
Correct for Detector Non-linearity: No (MAYP11278)
Correct for Stray Light: No (MAYP11278)
Number of Pixels in Processed Spectrum: 2068
>>>>>Begin Processed Spectral Data<<<<<
188,22	2311,00
188,70	2224,50
189,18	2196,10
189,66	2196,30
190,13	10806,00
190,61	11413,50
191,09	11263,80
191,57	11377,30
192,05	11915,40
192,53	11327,70
193,00	11086,30
193,48	10785,60
193,96	11328,90
194,44	11203,70
194,92	11522,40
195,40	11154,10
195,87	11827,40
196,35	11164,00
196,83	11295,90
197,31	12736,90
197,79	11281,60
198,26	10939,60
198,74	11196,80
199,22	10962,50
199,70	11558,00
200,18	11802,70
200,65	11189,30
201,13	11286,50
201,61	11799,10
202,09	11727,10
202,56	11712,00
203,04	10862,50
203,52	11627,80
204,00	10999,00
204,47	11937,40
204,95	12119,60
205,43	11158,50
205,91	11128,70
206,39	12316,40
206,86	11326,80
207,34	11680,90
207,82	12910,70
208,30	11503,30
208,77	11862,30
209,25	11322,20
209,73	11983,00
210,20	11803,60
210,68	11454,00
211,16	11414,60
211,64	11775,70
212,11	11597,10
212,59	11181,40
213,07	12542,50
213,55	11806,70
214,02	11295,90
214,50	12402,20
214,98	11701,10
215,45	12326,40
215,93	11740,90
216,41	11850,60
216,89	11828,40
217,36	11848,30
217,84	11237,70
218,32	11501,20
218,79	12277,70
219,27	10879,60
219,75	11214,20
220,22	11278,50
220,70	11547,00
221,18	12835,90
221,65	11267,40
222,13	12080,90
222,61	11277,20
223,08	12073,50
223,56	11386,30
224,04	12012,90
224,51	11531,20
224,99	11319,80
225,47	11122,90
225,94	11493,40
226,42	11232,60
226,90	11682,90
227,37	12183,30
227,85	11509,20
228,33	11920,20
228,80	11964,60
229,28	11891,40
229,76	11458,60
230,23	11618,70
230,71	11332,60
231,18	12008,10
231,66	12060,50
232,14	11681,80
232,61	11821,60
233,09	11166,20
233,57	11672,90
234,04	11804,00
234,52	13561,70
234,99	11857,80
235,47	11314,60
235,95	11184,00
236,42	11027,40
236,90	12126,40
237,37	12823,10
237,85	11377,80
238,33	11736,70
238,80	11709,50
239,28	11674,70
239,75	11631,70
240,23	11025,80
240,70	11972,20
241,18	12398,20
241,66	11737,40
242,13	11502,30
242,61	12087,80
243,08	12314,80
243,56	11108,70
244,03	11232,90
244,51	12152,40
244,99	12405,20
245,46	11543,00
245,94	12290,60
246,41	37348,00
246,89	10783,10
247,36	11815,00
247,84	11694,70
248,31	11785,80
248,79	11860,70
249,26	10884,60
249,74	11730,30
250,22	12084,60
250,69	11793,90
251,17	12438,30
251,64	11726,40
252,12	12799,90
252,59	12374,40
253,07	11415,40
253,54	12344,10
254,02	11726,80
254,49	11622,40
254,97	11860,40
255,44	11839,50
255,92	12126,20
256,39	11432,00
256,87	11861,30
257,34	11969,00
257,82	12195,70
258,29	13378,80
258,77	11793,00
259,24	11441,80
259,72	11873,10
260,19	12058,50
260,67	12626,40
261,14	11604,70
261,61	11498,90
262,09	12291,70
262,56	11348,50
263,04	11859,60
263,51	11593,70
263,99	11059,80
264,46	12113,30
264,94	12284,80
265,41	11501,50
265,89	11817,80
266,36	11903,20
266,83	12206,90
267,31	11559,60
267,78	11672,10
268,26	11893,50
268,73	11940,60
269,21	10931,50
269,68	11294,20
270,15	11466,30
270,63	12061,10
271,10	12383,10
271,58	11561,30
272,05	11785,90
272,53	11092,60
273,00	11144,80
273,47	10786,70
273,95	11777,90
274,42	13695,40
274,90	12027,00
275,37	12166,20
275,84	11452,30
276,32	11669,60
276,79	12000,80
277,26	12141,30
277,74	11195,00
278,21	11675,60
278,69	11224,00
279,16	13939,20
279,63	11528,70
280,11	11421,40
280,58	13836,60
281,05	12247,30
281,53	13461,20
282,00	11370,20
282,48	12328,90
282,95	11601,40
283,42	11681,80
283,90	11919,40
284,37	11286,80
284,84	11214,00
285,32	12108,40
285,79	11681,00
286,26	11987,10
286,74	11907,00
287,21	11012,90
287,68	11938,20
288,16	12568,90
288,63	11625,50
289,10	12140,40
289,58	10844,60
290,05	12568,10
290,52	11330,30
291,00	11872,90
291,47	11414,70
291,94	11929,40
292,41	13042,50
292,89	11400,50
293,36	12390,30
293,83	11509,90
294,31	12036,00
294,78	11974,10
295,25	11423,80
295,73	11758,20
296,20	11883,30
296,67	12754,70
297,14	12604,40
297,62	12145,80
298,09	11973,90
298,56	12009,10
299,03	11545,00
299,51	12650,70
299,98	11631,50
300,45	12029,00
300,92	11482,40
301,40	12307,30
301,87	12282,50
302,34	12223,20
302,82	11299,70
303,29	12174,10
303,76	12168,60
304,23	11399,60
304,70	11549,80
305,18	11311,30
305,65	11855,20
306,12	11968,00
306,59	11965,70
307,07	12140,80
307,54	11484,90
308,01	11613,10
308,48	11849,10
308,95	11530,50
309,43	12259,20
309,90	12290,90
310,37	11949,60
310,84	11845,30
311,32	12047,80
311,79	11464,60
312,26	12380,10
312,73	11733,00
313,20	12804,60
313,68	11426,00
314,15	11595,50
314,62	11866,70
315,09	11546,70
315,56	11445,80
316,03	12301,50
316,51	12041,40
316,98	11980,50
317,45	12137,40
317,92	11960,40
318,39	13413,60
318,86	11782,50
319,34	11705,90
319,81	11135,00
320,28	12009,90
320,75	12912,50
321,22	12241,10
321,69	11646,90
322,16	10912,00
322,64	11249,00
323,11	12814,30
323,58	11661,40
324,05	13332,50
324,52	11093,40
324,99	11935,90
325,46	11695,90
325,94	11610,20
326,41	11633,60
326,88	11561,70
327,35	12122,30
327,82	12051,20
328,29	12047,60
328,76	11886,60
329,23	11693,20
329,70	11572,70
330,18	11595,90
330,65	11385,60
331,12	12229,90
331,59	12021,20
332,06	12789,30
332,53	11381,00
333,00	12871,60
333,47	12213,70
333,94	12103,00
334,41	12522,50
334,88	11924,20
335,35	12066,30
335,83	13922,40
336,30	11249,70
336,77	11720,40
337,24	11552,40
337,71	11949,10
338,18	11632,20
338,65	11626,30
339,12	12630,70
339,59	12296,90
340,06	11277,90
340,53	11401,90
341,00	11369,40
341,47	12000,50
341,94	12436,50
342,41	11555,00
342,88	11944,70
343,35	12226,60
343,82	11920,30
344,29	11570,10
344,76	11739,70
345,23	11368,90
345,70	11771,70
346,17	12193,00
346,64	11580,80
347,11	11406,50
347,58	12688,30
348,05	11518,20
348,52	12454,00
348,99	11912,70
349,46	11130,70
349,93	11860,20
350,40	12230,00
350,87	11801,20
351,34	11360,50
351,81	11967,10
352,28	12825,20
352,75	11968,40
353,22	11687,90
353,69	11901,00
354,16	12165,40
354,63	11972,30
355,10	12202,40
355,57	11971,10
356,04	12698,00
356,51	11471,20
356,98	12780,70
357,45	11367,90
357,92	13118,60
358,39	12202,00
358,86	11194,50
359,33	11378,00
359,80	11535,70
360,27	11544,20
360,74	12350,50
361,20	12669,60
361,67	11619,80
362,14	11795,90
362,61	11819,90
363,08	11701,10
363,55	11736,50
364,02	13122,10
364,49	12089,70
364,96	11406,60
365,43	12117,10
365,90	11554,20
366,37	11157,90
366,83	11887,70
367,30	11764,80
367,77	21349,80
368,24	10812,20
368,71	11350,50
369,18	12247,70
369,65	11223,30
370,12	12310,20
370,59	11955,60
371,05	11560,40
371,52	17294,40
371,99	11913,00
372,46	11439,60
372,93	11057,30
373,40	11511,60
373,87	11811,40
374,33	11136,50
374,80	11352,20
375,27	11928,70
375,74	10958,50
376,21	12628,10
376,68	11521,80
377,15	11229,50
377,61	11144,70
378,08	12060,30
378,55	11919,20
379,02	11685,20
379,49	11781,00
379,96	11675,80
380,42	12083,90
380,89	12674,30
381,36	11828,90
381,83	12654,20
382,30	12585,90
382,76	11093,30
383,23	11910,00
383,70	11593,30
384,17	12289,10
384,64	11765,20
385,10	14766,90
385,57	11813,30
386,04	11531,10
386,51	11592,10
386,98	12789,50
387,44	11299,50
387,91	11131,70
388,38	12253,60
388,85	11916,10
389,31	12434,40
389,78	11389,10
390,25	12088,60
390,72	11854,90
391,19	12060,30
391,65	11866,30
392,12	11846,80
392,59	11935,90
393,06	11639,40
393,52	11624,00
393,99	13112,00
394,46	11682,30
394,93	12395,90
395,39	11408,70
395,86	12162,30
396,33	14597,20
396,80	11066,50
397,26	12088,90
397,73	12156,10
398,20	11225,20
398,66	11752,50
399,13	11533,60
399,60	11278,50
400,07	12382,60
400,53	11199,40
401,00	11640,00
401,47	11534,50
401,93	11979,30
402,40	11918,80
402,87	11811,20
403,34	11342,90
403,80	12655,80
404,27	11572,10
404,74	12506,60
405,20	12771,10
405,67	12488,60
406,14	11241,80
406,60	12172,40
407,07	12077,80
407,54	13005,50
408,00	11753,40
408,47	11879,00
408,94	12105,60
409,40	11206,80
409,87	12448,80
410,34	11270,70
410,80	12481,70
411,27	11318,50
411,74	12539,80
412,20	11558,10
412,67	10885,40
413,14	12029,80
413,60	11543,60
414,07	11920,60
414,53	12118,60
415,00	12711,30
415,47	11614,80
415,93	12667,00
416,40	11909,60
416,87	11814,80
417,33	12796,60
417,80	12015,70
418,26	11634,90
418,73	11820,40
419,20	11834,00
419,66	12258,30
420,13	11337,10
420,59	12223,20
421,06	11188,60
421,53	11691,80
421,99	11423,70
422,46	11999,70
422,92	11431,60
423,39	11679,50
423,86	11987,70
424,32	12207,80
424,79	11749,70
425,25	12241,80
425,72	11769,00
426,18	12541,40
426,65	11527,90
427,11	12486,10
427,58	12181,30
428,05	12326,20
428,51	11224,20
428,98	12337,50
429,44	12005,60
429,91	11778,40
430,37	11986,40
430,84	13612,30
431,30	11186,00
431,77	11620,60
432,23	12683,60
432,70	12265,50
433,17	11671,50
433,63	11456,70
434,10	11726,50
434,56	11562,30
435,03	12124,40
435,49	11198,20
435,96	12158,40
436,42	11797,90
436,89	11223,00
437,35	12259,50
437,82	11912,70
438,28	11890,10
438,75	11406,50
439,21	11533,90
439,68	14070,50
440,14	11954,00
440,61	12255,90
441,07	12459,10
441,54	11362,60
442,00	11597,00
442,47	13291,40
442,93	11335,90
443,39	11962,10
443,86	11919,30
444,32	11153,20
444,79	12694,20
445,25	12011,70
445,72	11807,50
446,18	11731,80
446,65	11971,10
447,11	11622,60
447,58	11813,60
448,04	11443,70
448,50	11395,40
448,97	12077,80
449,43	12112,00
449,90	11658,50
450,36	11296,90
450,83	11259,10
451,29	11433,70
451,75	11854,00
452,22	12209,10
452,68	11356,00
453,15	12369,30
453,61	11701,10
454,08	11659,80
454,54	11801,90
455,00	12033,30
455,47	11520,00
455,93	11843,80
456,40	12212,80
456,86	11493,90
457,32	12454,80
457,79	11723,90
458,25	11653,10
458,71	11155,20
459,18	11891,30
459,64	11670,70
460,11	11934,10
460,57	11506,40
461,03	11231,30
461,50	12636,30
461,96	12301,50
462,42	11368,10
462,89	11156,60
463,35	12388,30
463,81	11590,60
464,28	11852,00
464,74	11855,90
465,21	11268,30
465,67	11471,50
466,13	12334,80
466,60	11746,30
467,06	12077,20
467,52	12042,90
467,99	11680,50
468,45	11912,20
468,91	12039,70
469,37	11693,90
469,84	11327,40
470,30	12062,80
470,76	11810,10
471,23	11530,50
471,69	11651,00
472,15	11327,20
472,62	11567,90
473,08	11642,80
473,54	12527,60
474,01	11671,80
474,47	11318,80
474,93	11709,20
475,39	11189,90
475,86	11925,90
476,32	11763,90
476,78	11937,90
477,25	11685,60
477,71	11820,30
478,17	12601,40
478,63	11901,00
479,10	12341,30
479,56	11326,80
480,02	12784,60
480,48	12053,80
480,95	11869,70
481,41	11472,40
481,87	11765,60
482,33	11851,90
482,80	11116,30
483,26	11601,90
483,72	11077,70
484,18	11599,70
484,65	12671,70
485,11	11858,70
485,57	11733,80
486,03	10925,70
486,49	11614,30
486,96	10958,60
487,42	11974,50
487,88	11092,80
488,34	11060,70
488,80	11385,60
489,27	11854,10
489,73	11721,40
490,19	12261,10
490,65	11177,90
491,11	11799,50
491,58	11060,00
492,04	11403,90
492,50	10988,30
492,96	12282,20
493,42	11827,90
493,89	11727,00
494,35	11278,40
494,81	11531,70
495,27	11365,00
495,73	11286,20
496,19	11752,20
496,66	11484,20
497,12	11687,40
497,58	12777,90
498,04	12338,20
498,50	11400,70
498,96	11796,80
499,43	11513,90
499,89	13134,00
500,35	11666,90
500,81	11371,00
501,27	11654,10
501,73	11500,60
502,19	12057,80
502,65	11667,40
503,12	11690,00
503,58	11625,60
504,04	11997,70
504,50	11397,10
504,96	11916,80
505,42	11878,20
505,88	11331,60
506,34	11727,90
506,80	12187,40
507,27	11663,60
507,73	12013,80
508,19	11878,80
508,65	11357,90
509,11	11271,80
509,57	10989,70
510,03	11513,30
510,49	11672,30
510,95	11330,00
511,41	12414,20
511,87	12454,40
512,33	11293,10
512,80	10909,70
513,26	11235,60
513,72	11979,20
514,18	10774,70
514,64	12191,00
515,10	12768,50
515,56	10899,60
516,02	11842,10
516,48	12314,30
516,94	12162,70
517,40	13213,20
517,86	11898,80
518,32	11699,90
518,78	13801,40
519,24	11716,00
519,70	11361,20
520,16	11128,20
520,62	11253,60
521,08	11813,30
521,54	11999,70
522,00	12096,90
522,46	11703,30
522,92	11157,70
523,38	12684,30
523,84	12189,60
524,30	11551,50
524,76	12953,50
525,22	12040,10
525,68	12035,90
526,14	12569,10
526,60	11854,30
527,06	11712,10
527,52	11486,10
527,98	11535,20
528,44	12179,90
528,90	12053,10
529,36	11543,20
529,82	11199,70
530,28	12029,00
530,74	12079,70
531,20	11065,50
531,66	12331,90
532,12	11669,80
532,58	11680,00
533,04	11734,20
533,50	12000,50
533,96	11594,90
534,42	11118,10
534,88	11603,30
535,33	11429,20
535,79	11873,50
536,25	11434,30
536,71	11978,10
537,17	11207,80
537,63	12054,80
538,09	11661,10
538,55	11657,00
539,01	12707,80
539,47	12068,40
539,93	14918,20
540,39	11043,50
540,84	12690,70
541,30	11845,50
541,76	11150,70
542,22	12000,50
542,68	11913,50
543,14	11465,90
543,60	13304,70
544,06	11087,50
544,52	12985,40
544,97	12133,60
545,43	11544,30
545,89	11524,70
546,35	12176,60
546,81	11748,70
547,27	11922,80
547,73	12115,80
548,19	11862,30
548,64	11591,90
549,10	11530,70
549,56	11234,70
550,02	13038,90
550,48	11591,90
550,94	11110,80
551,39	11921,70
551,85	11781,20
552,31	12847,50
552,77	11866,40
553,23	11268,50
553,69	11987,30
554,14	11599,80
554,60	11184,50
555,06	11885,00
555,52	11806,00
555,98	12763,10
556,43	11799,80
556,89	12488,60
557,35	10853,80
557,81	11932,40
558,27	13008,30
558,72	11450,90
559,18	11678,90
559,64	11293,10
560,10	11365,30
560,56	11214,90
561,01	11689,80
561,47	11576,20
561,93	11606,80
562,39	11360,10
562,85	11332,70
563,30	11733,20
563,76	12313,70
564,22	11268,40
564,68	11886,70
565,13	11525,20
565,59	11573,10
566,05	11860,90
566,51	12440,10
566,96	11546,50
567,42	11365,10
567,88	11770,40
568,34	12204,30
568,79	11383,50
569,25	11644,60
569,71	12019,10
570,16	11785,50
570,62	11627,10
571,08	12176,70
571,54	12079,10
571,99	11636,80
572,45	11813,30
572,91	11978,60
573,36	11381,50
573,82	11447,70
574,28	11733,50
574,74	12574,00
575,19	12239,20
575,65	11118,50
576,11	11830,70
576,56	10778,90
577,02	12368,20
577,48	11528,30
577,93	11470,00
578,39	11086,80
578,85	12500,80
579,30	11585,20
579,76	11435,00
580,22	11908,20
580,67	11844,60
581,13	11668,50
581,59	11769,50
582,04	11821,50
582,50	11670,10
582,96	11116,80
583,41	11623,90
583,87	11849,10
584,33	11626,60
584,78	12029,10
585,24	11345,40
585,69	13277,60
586,15	11537,10
586,61	11553,20
587,06	11627,60
587,52	11715,10
587,98	12297,00
588,43	11143,90
588,89	11974,10
589,34	11654,60
589,80	11360,10
590,26	11925,80
590,71	12112,90
591,17	11468,10
591,62	10993,30
592,08	12510,70
592,54	11370,70
592,99	11901,60
593,45	11740,30
593,90	12172,30
594,36	11747,60
594,81	11654,30
595,27	12454,80
595,73	11540,90
596,18	11179,60
596,64	12559,80
597,09	12136,70
597,55	12401,60
598,00	11862,50
598,46	11032,10
598,92	11749,20
599,37	12496,30
599,83	11395,50
600,28	12034,50
600,74	12359,00
601,19	11972,70
601,65	12178,70
602,10	10995,50
602,56	13568,60
603,01	11463,30
603,47	11711,70
603,92	11018,10
604,38	10973,00
604,83	12042,60
605,29	11523,70
605,74	11976,00
606,20	11772,60
606,65	10962,70
607,11	11731,30
607,56	11541,90
608,02	11750,40
608,47	12030,70
608,93	11739,10
609,38	13276,40
609,84	12192,20
610,29	11564,40
610,75	11480,60
611,20	11798,00
611,66	11103,80
612,11	12889,70
612,57	12048,20
613,02	11877,60
613,48	13513,30
613,93	11084,60
614,39	11096,30
614,84	11107,40
615,30	11107,30
615,75	11500,10
616,20	11678,80
616,66	11207,90
617,11	11620,90
617,57	11611,40
618,02	12160,50
618,48	11327,40
618,93	11450,90
619,38	11563,30
619,84	12127,60
620,29	11503,10
620,75	12113,70
621,20	12225,50
621,66	11687,60
622,11	12293,10
622,56	12467,50
623,02	12246,30
623,47	11417,80
623,93	11345,40
624,38	12245,30
624,83	11055,00
625,29	11567,20
625,74	11827,40
626,20	11238,60
626,65	11641,10
627,10	11828,60
627,56	11163,10
628,01	12061,90
628,46	12189,80
628,92	10974,50
629,37	11589,40
629,82	11768,90
630,28	11310,70
630,73	11999,50
631,19	11669,60
631,64	12120,40
632,09	11929,90
632,55	12268,30
633,00	11360,40
633,45	11488,00
633,91	11295,20
634,36	11405,10
634,81	11143,10
635,27	11472,80
635,72	11350,60
636,17	10950,40
636,63	11648,70
637,08	11556,80
637,53	11245,10
637,99	12070,80
638,44	12232,30
638,89	11404,70
639,34	11658,90
639,80	11132,10
640,25	10863,00
640,70	11820,00
641,16	12227,40
641,61	10998,70
642,06	11400,10
642,51	11492,30
642,97	10868,30
643,42	11356,90
643,87	12033,20
644,33	11321,50
644,78	11130,40
645,23	11385,30
645,68	11192,00
646,14	11618,70
646,59	11703,00
647,04	11914,90
647,49	12052,10
647,95	11688,80
648,40	11823,40
648,85	11051,50
649,30	12341,70
649,76	11884,40
650,21	14139,00
650,66	11166,50
651,11	11213,00
651,57	11305,10
652,02	11755,90
652,47	11181,00
652,92	11648,60
653,37	11359,00
653,83	11225,60
654,28	11654,70
654,73	11846,60
655,18	11471,10
655,63	11085,60
656,09	12008,80
656,54	11229,90
656,99	11615,60
657,44	11977,80
657,89	11994,00
658,35	11216,80
658,80	11664,20
659,25	11177,30
659,70	14275,00
660,15	11376,30
660,60	12367,40
661,06	11581,00
661,51	11199,60
661,96	11518,70
662,41	11152,50
662,86	10795,60
663,31	11858,90
663,77	11350,40
664,22	11388,00
664,67	11510,00
665,12	11039,00
665,57	11664,30
666,02	10994,30
666,47	11769,90
666,93	11672,90
667,38	13161,50
667,83	12373,40
668,28	11181,10
668,73	11826,30
669,18	11150,50
669,63	12994,30
670,08	10787,80
670,53	11281,20
670,99	12273,20
671,44	11620,00
671,89	12530,00
672,34	13019,40
672,79	11598,80
673,24	11650,50
673,69	12308,60
674,14	13650,50
674,59	11711,30
675,04	11940,90
675,49	10907,10
675,95	11038,50
676,40	11771,20
676,85	11484,00
677,30	11461,50
677,75	11432,10
678,20	13309,20
678,65	11241,30
679,10	11483,30
679,55	11810,80
680,00	11372,40
680,45	11657,90
680,90	11586,40
681,35	10712,30
681,80	10690,80
682,25	11368,20
682,70	11603,80
683,15	11978,70
683,60	11838,00
684,05	11716,30
684,50	12375,40
684,95	11915,80
685,40	11727,90
685,85	11842,90
686,30	11497,00
686,75	11141,90
687,20	11683,60
687,65	11333,60
688,10	11689,70
688,55	11506,90
689,00	13343,40
689,45	12001,70
689,90	10844,80
690,35	11486,30
690,80	11510,10
691,25	10927,30
691,70	11516,60
692,15	10873,10
692,60	11577,70
693,05	11447,80
693,50	11960,70
693,95	11827,20
694,40	11586,80
694,85	11784,10
695,30	14338,60
695,75	11707,50
696,20	11729,00
696,65	12818,30
697,10	11517,40
697,55	11396,30
698,00	11861,30
698,45	11267,50
698,90	12041,40
699,34	12075,30
699,79	11316,10
700,24	11468,10
700,69	11967,20
701,14	12137,40
701,59	14070,20
702,04	10988,50
702,49	12515,90
702,94	11331,10
703,39	11397,00
703,84	11715,60
704,28	11504,30
704,73	11368,80
705,18	12287,10
705,63	12247,60
706,08	12206,30
706,53	10998,90
706,98	11939,10
707,43	11583,10
707,87	11503,40
708,32	11781,30
708,77	12142,90
709,22	11712,50
709,67	11370,70
710,12	11619,20
710,57	11573,70
711,01	11327,30
711,46	11963,10
711,91	11671,50
712,36	11705,70
712,81	11222,70
713,26	12891,20
713,71	11585,60
714,15	11747,50
714,60	12453,40
715,05	12210,00
715,50	11486,20
715,95	11676,90
716,39	11342,00
716,84	11419,00
717,29	11014,30
717,74	10948,40
718,19	11873,30
718,63	12682,10
719,08	11094,80
719,53	11082,60
719,98	11610,40
720,43	11551,80
720,87	11307,00
721,32	11724,80
721,77	11387,30
722,22	11826,60
722,67	11506,70
723,11	10981,40
723,56	10852,00
724,01	11698,30
724,46	10806,90
724,90	11826,80
725,35	10792,10
725,80	11490,20
726,25	11500,30
726,69	11642,20
727,14	12804,20
727,59	11115,60
728,04	12476,20
728,48	11875,50
728,93	11457,90
729,38	12362,70
729,83	11264,40
730,27	12123,30
730,72	11107,40
731,17	11682,80
731,61	11825,80
732,06	11733,50
732,51	11774,80
732,96	11191,60
733,40	11983,60
733,85	11812,80
734,30	11225,90
734,74	12031,90
735,19	11944,50
735,64	11662,30
736,09	13364,30
736,53	11176,40
736,98	11672,50
737,43	12116,60
737,87	11995,30
738,32	11656,70
738,77	11462,10
739,21	11675,40
739,66	10993,90
740,11	12303,60
740,55	11907,90
741,00	11185,10
741,45	11805,90
741,89	11952,50
742,34	11596,10
742,79	11598,30
743,23	11131,10
743,68	11212,30
744,12	11560,60
744,57	12203,40
745,02	12148,50
745,46	11897,20
745,91	12138,90
746,36	12534,20
746,80	10575,10
747,25	11130,40
747,69	10939,70
748,14	11788,10
748,59	11540,60
749,03	11354,10
749,48	11777,90
749,92	13267,40
750,37	11720,90
750,82	11486,30
751,26	10992,40
751,71	11357,90
752,15	11367,40
752,60	11443,20
753,05	12803,30
753,49	11245,90
753,94	11493,00
754,38	10943,90
754,83	11372,70
755,27	11005,90
755,72	11499,00
756,17	11627,80
756,61	12273,60
757,06	11407,70
757,50	12357,50
757,95	11634,10
758,39	11471,60
758,84	11487,80
759,28	11431,00
759,73	11027,40
760,17	11493,50
760,62	11812,60
761,07	11518,20
761,51	11964,90
761,96	12349,40
762,40	11421,00
762,85	11112,80
763,29	11414,80
763,74	12090,00
764,18	11547,70
764,63	11025,50
765,07	11329,40
765,52	11792,20
765,96	11136,70
766,41	10961,10
766,85	11252,00
767,30	11574,00
767,74	11654,30
768,19	11803,10
768,63	11973,50
769,07	11462,80
769,52	12826,20
769,96	11078,60
770,41	11479,60
770,85	11200,80
771,30	11015,30
771,74	11885,50
772,19	11678,30
772,63	11743,00
773,08	10818,90
773,52	11412,80
773,97	11263,20
774,41	10701,40
774,85	11589,90
775,30	11137,90
775,74	11700,30
776,19	11539,00
776,63	11088,20
777,08	11454,60
777,52	11421,50
777,96	11808,00
778,41	11952,90
778,85	11404,60
779,30	11626,70
779,74	13344,50
780,18	12456,50
780,63	11672,20
781,07	12284,40
781,52	11915,80
781,96	11133,50
782,40	11769,20
782,85	11092,10
783,29	11364,30
783,74	11938,30
784,18	12091,40
784,62	11500,80
785,07	11332,80
785,51	11403,90
785,95	11202,60
786,40	11936,70
786,84	12243,60
787,28	12259,60
787,73	11063,10
788,17	11237,50
788,61	11677,40
789,06	11219,40
789,50	11412,40
789,94	11256,80
790,39	11638,50
790,83	11117,30
791,27	11224,40
791,72	12225,30
792,16	11336,80
792,60	11531,50
793,05	11300,40
793,49	14152,50
793,93	12175,50
794,38	11632,50
794,82	11700,70
795,26	11561,70
795,71	11068,10
796,15	11788,90
796,59	11421,50
797,03	11567,10
797,48	11273,10
797,92	11013,50
798,36	11530,80
798,81	12180,50
799,25	11697,00
799,69	11069,20
800,13	12636,20
800,58	11762,20
801,02	11192,20
801,46	11859,30
801,90	11678,20
802,35	11126,00
802,79	12242,60
803,23	12641,10
803,67	11976,50
804,12	11693,40
804,56	11479,90
805,00	11305,10
805,44	12592,30
805,89	12954,70
806,33	12681,00
806,77	11964,70
807,21	12909,50
807,66	11394,90
808,10	11658,00
808,54	11123,80
808,98	11876,00
809,42	11621,10
809,87	11273,90
810,31	11101,90
810,75	11874,10
811,19	12467,00
811,63	13737,00
812,08	11460,70
812,52	11198,90
812,96	11981,80
813,40	12712,00
813,84	12132,70
814,28	11679,70
814,73	12111,20
815,17	11950,90
815,61	11761,30
816,05	11323,30
816,49	11123,30
816,93	11320,00
817,38	12066,80
817,82	11616,40
818,26	12203,80
818,70	11317,70
819,14	11985,10
819,58	12286,30
820,03	11434,30
820,47	11847,00
820,91	11330,20
821,35	11630,80
821,79	11181,10
822,23	12545,10
822,67	11100,20
823,11	11686,50
823,55	11743,40
824,00	11070,30
824,44	11710,10
824,88	11561,30
825,32	11757,00
825,76	11803,60
826,20	11108,40
826,64	11409,70
827,08	10670,40
827,52	11614,90
827,96	12028,80
828,41	12376,80
828,85	11276,20
829,29	12131,50
829,73	11830,40
830,17	11282,60
830,61	12584,50
831,05	11385,80
831,49	13066,80
831,93	12234,60
832,37	11962,90
832,81	10945,90
833,25	11572,20
833,69	11490,70
834,13	12488,70
834,57	11989,80
835,01	11557,30
835,45	11327,10
835,89	12193,50
836,33	11493,60
836,77	11752,70
837,22	11532,30
837,66	12113,80
838,10	11207,90
838,54	11276,90
838,98	11759,30
839,42	11588,90
839,86	12545,50
840,30	12986,10
840,74	11657,50
841,18	12408,20
841,62	10743,70
842,06	11280,00
842,50	10926,00
842,94	11395,20
843,37	11995,40
843,81	11660,20
844,25	12035,90
844,69	11574,50
845,13	11175,80
845,57	11965,80
846,01	11476,50
846,45	11986,50
846,89	11280,80
847,33	11266,30
847,77	11603,50
848,21	11296,40
848,65	11417,00
849,09	11322,20
849,53	11955,20
849,97	12349,00
850,41	11966,00
850,85	11447,70
851,29	12090,50
851,73	11168,70
852,16	11810,70
852,60	12239,30
853,04	11330,80
853,48	11371,00
853,92	12013,60
854,36	10954,10
854,80	12161,70
855,24	10945,00
855,68	11316,20
856,12	12217,30
856,55	12622,30
856,99	11617,40
857,43	11885,10
857,87	11571,70
858,31	11020,50
858,75	12427,50
859,19	10722,20
859,63	11181,40
860,06	11398,60
860,50	11525,80
860,94	11764,80
861,38	11964,60
861,82	11293,50
862,26	11523,90
862,70	11812,40
863,13	11268,20
863,57	11377,80
864,01	12018,40
864,45	11206,00
864,89	11560,70
865,33	11490,20
865,76	10948,20
866,20	11507,70
866,64	10813,70
867,08	11984,50
867,52	11090,00
867,96	11764,40
868,39	11485,70
868,83	11275,00
869,27	11768,90
869,71	11547,40
870,15	12515,20
870,58	13114,40
871,02	10936,20
871,46	11455,80
871,90	11598,00
872,34	11192,10
872,77	11694,40
873,21	11890,60
873,65	11528,20
874,09	12207,10
874,52	12042,10
874,96	11465,50
875,40	11119,80
875,84	12249,50
876,27	10722,80
876,71	11855,70
877,15	11522,70
877,59	11512,40
878,02	11593,40
878,46	11533,90
878,90	11716,90
879,34	11535,30
879,77	12556,40
880,21	11174,20
880,65	11050,20
881,09	11363,50
881,52	11654,00
881,96	12010,50
882,40	11436,00
882,83	11463,00
883,27	11413,80
883,71	11391,40
884,14	11054,20
884,58	11903,60
885,02	11628,10
885,46	11845,00
885,89	12104,00
886,33	11391,30
886,77	11230,10
887,20	12643,90
887,64	11075,80
888,08	11175,90
888,51	11471,10
888,95	11340,20
889,39	13329,30
889,82	10935,00
890,26	12049,30
890,70	11222,50
891,13	11849,20
891,57	11846,00
892,01	10906,70
892,44	11201,30
892,88	11397,50
893,31	11066,50
893,75	11384,80
894,19	11802,70
894,62	11465,80
895,06	12014,30
895,50	11404,70
895,93	11114,20
896,37	11599,50
896,80	11798,30
897,24	11132,20
897,68	11038,40
898,11	11115,00
898,55	11728,60
898,98	12196,50
899,42	11173,80
899,86	11170,00
900,29	11236,70
900,73	12156,50
901,16	11824,20
901,60	11361,40
902,04	12688,10
902,47	12772,80
902,91	11128,60
903,34	11384,20
903,78	12602,40
904,21	11142,00
904,65	11805,30
905,09	11212,60
905,52	11316,30
905,96	10950,10
906,39	12272,80
906,83	11559,40
907,26	12131,10
907,70	11692,40
908,13	11449,80
908,57	11912,10
909,00	12466,00
909,44	11436,70
909,87	10974,30
910,31	11740,70
910,74	11772,50
911,18	11371,30
911,62	11152,90
912,05	11388,60
912,49	11695,10
912,92	11376,10
913,36	11787,70
913,79	11847,90
914,22	11430,00
914,66	10984,10
915,09	11080,70
915,53	11324,70
915,96	11226,30
916,40	12024,40
916,83	11284,90
917,27	12141,60
917,70	11299,20
918,14	12063,80
918,57	11186,50
919,01	11460,60
919,44	11438,90
919,88	11843,40
920,31	12009,00
920,75	11524,30
921,18	12552,90
921,61	11863,50
922,05	11347,40
922,48	11047,80
922,92	11057,90
923,35	11686,00
923,79	12502,20
924,22	11878,50
924,65	10843,00
925,09	11874,10
925,52	11113,60
925,96	12038,30
926,39	12908,20
926,82	11417,30
927,26	11874,30
927,69	10940,40
928,13	12893,90
928,56	11530,60
928,99	11000,80
929,43	12087,40
929,86	11285,40
930,30	11758,40
930,73	12084,10
931,16	11248,60
931,60	11925,20
932,03	10798,80
932,46	12597,40
932,90	12102,40
933,33	13291,90
933,76	11516,90
934,20	12194,30
934,63	12132,90
935,07	11991,90
935,50	11734,50
935,93	11026,20
936,37	11491,60
936,80	11264,90
937,23	11774,60
937,67	11051,60
938,10	11898,60
938,53	11308,30
938,96	11385,70
939,40	11987,10
939,83	11100,40
940,26	11603,30
940,70	12116,80
941,13	12840,50
941,56	11270,00
942,00	12194,00
942,43	11169,10
942,86	11319,90
943,29	12058,10
943,73	10980,40
944,16	10879,00
944,59	11957,80
945,03	11844,40
945,46	11840,70
945,89	11528,20
946,32	11710,60
946,76	11698,30
947,19	12320,90
947,62	11434,40
948,05	11612,80
948,49	11900,00
948,92	10898,30
949,35	11026,60
949,78	11022,50
950,22	13186,90
950,65	12280,10
951,08	11360,90
951,51	11342,50
951,95	11814,90
952,38	10930,80
952,81	12086,20
953,24	11326,10
953,67	12791,00
954,11	10964,40
954,54	11251,00
954,97	11323,80
955,40	11257,30
955,83	11330,20
956,27	11830,10
956,70	11052,10
957,13	11900,00
957,56	13331,50
957,99	11008,00
958,43	11845,00
958,86	11654,20
959,29	11324,80
959,72	11234,70
960,15	11231,60
960,58	10703,20
961,02	11363,80
961,45	11896,70
961,88	11857,50
962,31	12159,70
962,74	11960,00
963,17	11205,80
963,61	11621,00
964,04	11290,40
964,47	11593,00
964,90	11472,00
965,33	11243,10
965,76	12113,80
966,19	11304,30
966,62	11469,70
967,06	11903,30
967,49	11236,70
967,92	11312,10
968,35	12184,60
968,78	14145,50
969,21	11935,40
969,64	11544,40
970,07	11823,40
970,50	11067,60
970,93	11272,90
971,37	11835,20
971,80	11329,70
972,23	11540,90
972,66	10963,90
973,09	11157,00
973,52	11373,20
973,95	11835,90
974,38	11388,60
974,81	11937,20
975,24	11682,00
975,67	11203,70
976,10	11226,70
976,53	11178,10
976,96	11670,00
977,39	11049,20
977,82	11977,90
978,26	11591,00
978,69	11403,20
979,12	11466,80
979,55	11373,30
979,98	12058,70
980,41	11849,20
980,84	11244,80
981,27	11695,60
981,70	12108,00
982,13	11518,30
982,56	11533,20
982,99	11264,10
983,42	11358,50
983,85	11171,50
984,28	12084,60
984,71	12037,80
985,14	11065,30
985,57	10701,30
986,00	11471,70
986,43	11958,60
986,86	11382,30
987,29	11125,20
987,72	11767,20
988,15	11492,70
988,57	11619,40
989,00	11429,50
989,43	11660,50
989,86	11517,10
990,29	11400,10
990,72	11749,20
991,15	11614,40
991,58	11714,60
992,01	12596,30
992,44	11355,00
992,87	11044,50
993,30	11461,80
993,73	11195,30
994,16	11271,40
994,59	11787,90
995,02	11989,40
995,44	11633,70
995,87	11582,30
996,30	10805,60
996,73	10979,00
997,16	10623,00
997,59	12092,80
998,02	11956,60
998,45	11304,50
998,88	11613,90
999,31	11060,00
999,73	12454,90
1000,16	11464,60
1000,59	11644,30
1001,02	12310,90
1001,45	11067,40
1001,88	11649,40
1002,31	11881,70
1002,74	11546,90
1003,16	11688,90
1003,59	11503,60
1004,02	11854,70
1004,45	11102,80
1004,88	11749,40
1005,31	11627,00
1005,73	12393,50
1006,16	11447,30
1006,59	10942,70
1007,02	11763,00
1007,45	11487,00
1007,88	11240,30
1008,30	10907,30
1008,73	11385,30
1009,16	11237,20
1009,59	13812,20
1010,02	12200,70
1010,44	12037,40
1010,87	11780,90
1011,30	11866,60
1011,73	12134,70
1012,16	11450,10
1012,58	11888,20
1013,01	11523,70
1013,44	11710,50
1013,87	11785,60
1014,30	11048,50
1014,72	12347,70
1015,15	10852,90
1015,58	12057,30
1016,01	11179,10
1016,43	11586,70
1016,86	11072,50
1017,29	11858,10
1017,72	11310,70
1018,14	22808,90
1018,57	11307,80
1019,00	10822,10
1019,43	13297,70
1019,85	12271,80
1020,28	11936,60
1020,71	11408,60
1021,14	11543,40
1021,56	11775,30
1021,99	11736,40
1022,42	11885,00
1022,84	11569,00
1023,27	13875,60
1023,70	12243,20
1024,13	12157,10
1024,55	11978,20
1024,98	11680,80
1025,41	11831,60
1025,83	12092,10
1026,26	11178,50
1026,69	11159,90
1027,11	13084,00
1027,54	11930,70
1027,97	11820,30
1028,39	11603,60
1028,82	11727,90
1029,25	11249,60
1029,67	13026,10
1030,10	11630,40
1030,53	11584,10
1030,95	11766,50
1031,38	12389,00
1031,81	10966,20
1032,23	11714,40
1032,66	12033,50
1033,09	11401,30
1033,51	12150,40
1033,94	11195,10
1034,37	11227,00
1034,79	11775,60
1035,22	12051,90
1035,64	11384,00
1036,07	12693,10
1036,50	11259,30
1036,92	11385,80
1037,35	11773,20
1037,77	10914,60
1038,20	12026,80
1038,63	12114,60
1039,05	12029,30
1039,48	12214,90
1039,90	12591,80
1040,33	11513,70
1040,76	11459,50
1041,18	11833,70
1041,61	11387,50
1042,03	12515,60
1042,46	12375,40
1042,88	11932,80
1043,31	12205,70
1043,74	11662,90
1044,16	12143,30
1044,59	11117,90
1045,01	11501,30
1045,44	11439,10
1045,86	11033,40
1046,29	11654,30
1046,71	11981,40
1047,14	11281,60
1047,56	11881,40
1047,99	12104,70
1048,42	11194,00
1048,84	12235,90
1049,27	11986,50
1049,69	12151,80
1050,12	11469,10
1050,54	11502,30
1050,97	11921,40
1051,39	12183,90
1051,82	12812,00
1052,24	12337,00
1052,67	11740,60
1053,09	11927,00
1053,52	10683,90
1053,94	11680,00
1054,37	10778,30
1054,79	11495,40
1055,22	11281,90
1055,64	11802,30
1056,06	11935,00
1056,49	12800,30
1056,91	12293,90
1057,34	12243,50
1057,76	11701,30
1058,19	14058,20
1058,61	11285,30
1059,04	11904,30
1059,46	12016,90
1059,89	11430,30
1060,31	11490,50
1060,73	11355,60
1061,16	12229,60
1061,58	11716,80
1062,01	11430,30
1062,43	12126,50
1062,86	12426,90
1063,28	11823,10
1063,70	11563,40
1064,13	11315,80
1064,55	12118,30
1064,98	12195,80
1065,40	11398,30
1065,82	11211,10
1066,25	10963,50
1066,67	12200,90
1067,10	11615,50
1067,52	11622,50
1067,94	11822,50
1068,37	11454,30
1068,79	12683,30
1069,21	11669,60
1069,64	11421,20
1070,06	11005,10
1070,48	12179,60
1070,91	12267,30
1071,33	12184,00
1071,76	11504,00
1072,18	11994,60
1072,60	11411,30
1073,03	11150,00
1073,45	10946,50
1073,87	12082,00
1074,30	11438,90
1074,72	11060,60
1075,14	11391,00
1075,57	11414,60
1075,99	11748,80
1076,41	11324,30
1076,84	11186,60
1077,26	11546,80
1077,68	12129,40
1078,10	11448,20
1078,53	12065,70
1078,95	12538,80
1079,37	10741,20
1079,80	11731,40
1080,22	11414,20
1080,64	11549,90
1081,06	11924,50
1081,49	11636,90
1081,91	11424,80
1082,33	11833,00
1082,76	11551,80
1083,18	11522,20
1083,60	11598,20
1084,02	11666,90
1084,45	12187,60
1084,87	11608,70
1085,29	11460,30
1085,71	12404,50
1086,14	11195,50
1086,56	11416,20
1086,98	11817,90
1087,40	10873,00
1087,83	12009,90
1088,25	24583,70
1088,67	11825,90
1089,09	11289,30
1089,51	11302,70
1089,94	11438,90
1090,36	12259,90
1090,78	11573,30
1091,20	11082,00
1091,62	11407,20
1092,05	11474,80
1092,47	11227,50
1092,89	11603,30
1093,31	11343,00
1093,73	11638,10
1094,16	11389,20
1094,58	11575,50
1095,00	11447,60
1095,42	11565,40
1095,84	11297,40
1096,26	11597,20
1096,69	11832,40
1097,11	11031,90
1097,53	11556,80
1097,95	11280,90
1098,37	11953,80
1098,79	11877,10
1099,22	11835,90
1099,64	11467,90
1100,06	11446,30
1100,48	11181,30
1100,90	11388,90
1101,32	11320,60
1101,74	11581,70
1102,16	11034,70
1102,59	11213,30
1103,01	11448,70
1103,43	11509,50
1103,85	11666,60
1104,27	16714,60
1104,69	12353,90
1105,11	10556,10
1105,53	11673,90
1105,95	11462,90
1106,38	11153,10
1106,80	11451,90
1107,22	10514,60
1107,64	10854,50
1108,06	12019,70
1108,48	10789,00
1108,90	11722,30
1109,32	11655,80
1109,74	11675,60
1110,16	10605,30
1110,58	11213,60
1111,00	10707,60
1111,42	11136,60
1111,84	10755,20
1112,26	10853,30
1112,68	10563,90
1113,11	11172,00
1113,53	10876,30
1113,95	10785,50
1114,37	11338,10
1114,79	11542,20
1115,21	10994,50
1115,63	11245,10
1116,05	10995,50
1116,47	11488,70
1116,89	11401,10
1117,31	10920,80
1117,73	10619,80
1118,15	2005,90
1118,57	2213,70
1118,99	2196,00
1119,41	2198,50
>>>>>End Processed Spectral Data<<<<<
