SpectraSuite Data File
++++++++++++++++++++++++++++++++++++
Date: Thu Feb 14 15:05:08 EET 2013
User: OO Maya
Dark Spectrum Present: No
Reference Spectrum Present: No
Number of Sampled Component Spectra: 1
Spectrometers: MAYP11278
Integration Time (usec): 6000000 (MAYP11278)
Spectra Averaged: 10 (MAYP11278)
Boxcar Smoothing: 0 (MAYP11278)
Correct for Electrical Dark: No (MAYP11278)
Strobe/Lamp Enabled: No (MAYP11278)
Correct for Detector Non-linearity: No (MAYP11278)
Correct for Stray Light: No (MAYP11278)
Number of Pixels in Processed Spectrum: 2068
>>>>>Begin Processed Spectral Data<<<<<
188,05	2295,20
188,53	2216,20
189,01	2186,80
189,49	2187,00
189,96	8997,50
190,44	9658,60
190,92	9369,70
191,40	9441,30
191,88	9903,90
192,36	9483,60
192,83	9242,30
193,31	8948,00
193,79	9472,80
194,27	9313,70
194,75	9643,00
195,23	9359,60
195,70	9927,90
196,18	9294,00
196,66	9492,60
197,14	10799,30
197,62	9470,70
198,09	9097,40
198,57	9325,10
199,05	9221,90
199,53	9682,90
200,01	9933,90
200,48	9381,80
200,96	9449,80
201,44	9908,90
201,92	9841,20
202,39	9880,70
202,87	9113,50
203,35	9773,70
203,83	9126,40
204,31	10006,30
204,78	10189,00
205,26	9296,50
205,74	9316,50
206,22	10284,50
206,69	9506,70
207,17	9746,80
207,65	10974,00
208,13	9641,30
208,60	10008,30
209,08	9471,70
209,56	10097,00
210,04	9948,40
210,51	9584,70
210,99	9570,30
211,47	9820,00
211,94	9621,90
212,42	9309,10
212,90	10609,30
213,38	9954,70
213,85	9413,30
214,33	10651,00
214,81	9844,40
215,29	10387,40
215,76	9837,50
216,24	10053,90
216,72	10004,30
217,19	10007,90
217,67	9362,70
218,15	9574,10
218,62	10244,40
219,10	9117,20
219,58	9378,30
220,05	9404,70
220,53	9681,60
221,01	10342,70
221,49	9435,60
221,96	10238,90
222,44	9395,60
222,92	10202,80
223,39	9481,90
223,87	10143,90
224,35	9682,40
224,82	9480,00
225,30	9326,00
225,78	9652,70
226,25	9377,30
226,73	9731,10
227,21	10182,10
227,68	9749,00
228,16	9928,80
228,63	10062,30
229,11	10000,60
229,59	9641,60
230,06	9640,70
230,54	9541,00
231,02	10059,90
231,49	10116,60
231,97	9785,30
232,45	9842,00
232,92	9373,40
233,40	9839,70
233,87	9879,70
234,35	11579,10
234,83	9911,50
235,30	9491,50
235,78	9403,50
236,25	9155,10
236,73	10151,40
237,21	10875,00
237,68	9529,10
238,16	9837,80
238,63	9941,40
239,11	9907,30
239,59	9678,90
240,06	9218,20
240,54	10103,20
241,01	10483,90
241,49	9893,60
241,96	9709,00
242,44	10168,80
242,92	10353,80
243,39	9292,40
243,87	9367,50
244,34	10166,60
244,82	10506,40
245,29	9678,30
245,77	10364,70
246,24	10316,30
246,72	9513,30
247,20	9800,10
247,67	9872,80
248,15	9891,60
248,62	9985,30
249,10	9085,80
249,57	9887,70
250,05	10183,30
250,52	9944,00
251,00	10523,20
251,47	9815,50
251,95	10801,00
252,42	10525,30
252,90	9535,80
253,37	10429,60
253,85	9854,00
254,32	9668,80
254,80	9913,50
255,27	9980,60
255,75	10300,80
256,22	9514,60
256,70	9995,80
257,17	10148,70
257,65	10405,30
258,12	11382,30
258,60	9892,50
259,07	9588,40
259,55	9943,70
260,02	10189,20
260,50	10706,10
260,97	9750,50
261,45	9564,90
261,92	10354,90
262,40	9446,60
262,87	10025,90
263,35	9744,10
263,82	9206,60
264,30	10193,90
264,77	10404,40
265,25	9616,80
265,72	9928,60
266,19	10035,40
266,67	10199,00
267,14	9744,70
267,62	9761,80
268,09	9888,90
268,57	10003,50
269,04	9165,60
269,51	9436,00
269,99	9507,30
270,46	10171,60
270,94	10345,60
271,41	9720,50
271,89	9861,10
272,36	9233,10
272,83	9340,20
273,31	8996,20
273,78	9853,70
274,26	11666,30
274,73	10158,90
275,20	10193,90
275,68	9567,30
276,15	9715,40
276,63	10007,40
277,10	10213,00
277,57	9338,80
278,05	9779,60
278,52	9370,30
279,00	12012,20
279,47	9685,60
279,94	9611,20
280,42	11971,40
280,89	10299,60
281,36	11499,00
281,84	9557,80
282,31	10403,40
282,78	9729,80
283,26	9747,30
283,73	10157,60
284,21	9480,50
284,68	9425,70
285,15	10258,10
285,63	9828,80
286,10	9941,60
286,57	9995,90
287,05	9211,50
287,52	10060,20
287,99	10565,30
288,47	9662,50
288,94	10229,80
289,41	8976,60
289,89	10574,00
290,36	9506,90
290,83	10084,90
291,30	9556,00
291,78	10048,50
292,25	11013,50
292,72	9585,40
293,20	10460,50
293,67	9636,00
294,14	10167,00
294,62	10112,10
295,09	9495,10
295,56	9947,30
296,03	9994,30
296,51	10840,10
296,98	10739,80
297,45	10208,00
297,93	10138,00
298,40	10052,90
298,87	9720,30
299,34	10632,70
299,82	9780,70
300,29	10102,00
300,76	9622,20
301,23	10340,90
301,71	10421,40
302,18	10300,70
302,65	9495,10
303,12	10239,80
303,60	10388,60
304,07	9502,80
304,54	9646,90
305,01	9460,70
305,49	9994,30
305,96	10151,90
306,43	10047,80
306,90	10219,60
307,38	9717,90
307,85	9674,90
308,32	10091,20
308,79	9678,20
309,27	10358,40
309,74	10335,70
310,21	10156,70
310,68	9942,50
311,15	10146,10
311,63	9622,20
312,10	10400,60
312,57	9868,30
313,04	10866,00
313,51	9566,90
313,99	9745,70
314,46	10061,00
314,93	9674,30
315,40	9597,30
315,87	10356,50
316,34	10227,70
316,82	10013,70
317,29	10193,40
317,76	9970,70
318,23	11374,80
318,70	9933,80
319,17	9871,10
319,65	9279,20
320,12	10152,40
320,59	10917,90
321,06	10264,70
321,53	9741,90
322,00	9111,60
322,48	9427,20
322,95	10808,90
323,42	9764,60
323,89	11203,10
324,36	9256,80
324,83	10055,30
325,30	9788,60
325,78	9720,20
326,25	9790,00
326,72	9723,50
327,19	10119,50
327,66	10125,10
328,13	10169,30
328,60	9942,20
329,07	9821,70
329,54	9711,20
330,02	9687,00
330,49	9487,60
330,96	10330,00
331,43	10117,10
331,90	10813,90
332,37	9590,20
332,84	10993,00
333,31	10281,00
333,78	10176,00
334,25	10611,50
334,72	9920,10
335,20	10196,80
335,67	11866,70
336,14	9384,30
336,61	9852,10
337,08	9682,30
337,55	10046,90
338,02	9752,80
338,49	9778,70
338,96	10756,60
339,43	10438,00
339,90	9382,70
340,37	9584,90
340,84	9456,90
341,31	10156,50
341,78	10447,80
342,25	9693,50
342,72	10074,80
343,19	10341,50
343,67	10072,00
344,14	9745,90
344,61	9886,60
345,08	9546,40
345,55	9879,10
346,02	10160,90
346,49	9694,90
346,96	9581,30
347,43	10775,80
347,90	9650,20
348,37	10489,50
348,84	10012,50
349,31	9286,20
349,78	9963,00
350,25	10277,70
350,72	9994,10
351,19	9466,60
351,66	10056,40
352,13	10861,10
352,60	9976,20
353,07	9806,10
353,54	10044,70
354,01	10159,20
354,48	10017,50
354,94	10278,20
355,41	10010,40
355,88	10762,50
356,35	9600,60
356,82	10731,50
357,29	9466,50
357,76	11072,30
358,23	10260,60
358,70	9286,50
359,17	9518,00
359,64	9665,20
360,11	9703,40
360,58	10319,00
361,05	10688,00
361,52	9743,40
361,99	9757,10
362,46	9895,10
362,93	9808,20
363,39	9876,00
363,86	11157,90
364,33	10193,10
364,80	9582,20
365,27	10183,00
365,74	9643,70
366,21	9364,20
366,68	10037,20
367,15	9887,90
367,62	9908,40
368,09	9237,30
368,55	9403,30
369,02	10342,90
369,49	9381,30
369,96	10345,70
370,43	10044,30
370,90	9690,30
371,37	9591,60
371,84	10074,60
372,31	9568,90
372,77	9204,80
373,24	9603,80
373,71	9897,80
374,18	9298,40
374,65	9485,10
375,12	10054,50
375,59	9163,20
376,05	10664,50
376,52	9715,50
376,99	9394,30
377,46	9326,80
377,93	10018,90
378,40	9974,50
378,86	9903,70
379,33	9875,20
379,80	9830,70
380,27	10189,80
380,74	10710,90
381,21	9885,30
381,67	10674,80
382,14	10633,80
382,61	9267,50
383,08	10086,70
383,55	9665,50
384,02	10407,30
384,48	9841,20
384,95	12744,70
385,42	9907,60
385,89	9781,70
386,36	9742,20
386,82	10781,90
387,29	9454,30
387,76	9291,80
388,23	10293,30
388,69	10047,90
389,16	10564,40
389,63	9543,90
390,10	10112,00
390,57	9974,70
391,03	10197,20
391,50	10085,40
391,97	9998,10
392,44	10065,30
392,90	9849,30
393,37	9781,50
393,84	11131,60
394,31	9935,10
394,77	10474,00
395,24	9515,60
395,71	10250,30
396,18	12477,10
396,64	9285,50
397,11	10151,60
397,58	10290,20
398,05	9373,50
398,51	9914,20
398,98	9642,40
399,45	9357,50
399,92	10464,80
400,38	9281,10
400,85	9779,40
401,32	9687,50
401,78	10058,10
402,25	10042,30
402,72	9898,00
403,18	9488,80
403,65	10615,90
404,12	9746,50
404,59	10550,70
405,05	10830,10
405,52	10552,80
405,99	9448,80
406,45	10305,10
406,92	10153,60
407,39	11047,70
407,85	9888,80
408,32	9948,60
408,79	10193,60
409,25	9344,50
409,72	10486,20
410,19	9425,80
410,65	10461,40
411,12	9477,40
411,59	10436,30
412,05	10904,00
412,52	9065,70
412,99	10137,70
413,45	9586,80
413,92	10087,00
414,39	10256,80
414,85	10762,20
415,32	9758,20
415,78	10773,60
416,25	10003,50
416,72	9983,60
417,18	10912,20
417,65	10089,60
418,12	9758,40
418,58	9991,00
419,05	9960,80
419,51	10296,00
419,98	9457,50
420,45	10350,00
420,91	9301,30
421,38	9830,40
421,84	9596,20
422,31	10141,80
422,78	9604,40
423,24	9767,60
423,71	10096,20
424,17	10300,60
424,64	9805,90
425,11	10238,90
425,57	9872,40
426,04	10493,80
426,50	9643,60
426,97	10571,50
427,43	10242,00
427,90	10407,10
428,37	9403,30
428,83	10445,60
429,30	10167,80
429,76	9934,60
430,23	10054,20
430,69	11678,10
431,16	9297,00
431,62	9744,90
432,09	10769,20
432,55	10360,40
433,02	9854,50
433,48	9573,30
433,95	9905,30
434,42	9797,20
434,88	10236,50
435,35	9379,10
435,81	10223,20
436,28	9875,50
436,74	9271,80
437,21	10336,70
437,67	10054,80
438,14	9943,80
438,60	9675,20
439,07	9770,50
439,53	12067,40
440,00	10067,40
440,46	10332,00
440,93	10518,70
441,39	9489,10
441,86	9704,30
442,32	11265,50
442,79	9458,60
443,25	9991,40
443,72	10010,10
444,18	9309,40
444,64	10707,80
445,11	10167,70
445,57	9882,60
446,04	9869,80
446,50	10052,50
446,97	9799,20
447,43	9892,30
447,90	9560,10
448,36	9523,70
448,83	10189,30
449,29	10159,80
449,75	9828,20
450,22	9483,90
450,68	9436,60
451,15	9545,20
451,61	9940,40
452,08	10213,60
452,54	9454,50
453,00	10422,80
453,47	9791,80
453,93	9729,10
454,40	9876,60
454,86	10202,20
455,32	9596,30
455,79	9934,20
456,25	10355,50
456,72	9609,90
457,18	10537,10
457,64	9743,20
458,11	9788,50
458,57	9367,90
459,04	9932,20
459,50	9824,70
459,96	9901,50
460,43	9670,60
460,89	9409,60
461,36	10647,50
461,82	10332,10
462,28	9511,40
462,75	9317,40
463,21	10491,60
463,67	9772,20
464,14	9998,40
464,60	9971,50
465,06	9421,80
465,53	9568,40
465,99	10409,40
466,45	9881,20
466,92	10164,70
467,38	10123,00
467,84	9705,10
468,31	10019,10
468,77	10108,90
469,23	9846,40
469,70	9540,40
470,16	10024,60
470,62	9960,80
471,09	9687,20
471,55	9769,90
472,01	9544,30
472,48	9675,80
472,94	9794,50
473,40	10621,70
473,87	9786,40
474,33	9532,90
474,79	9806,10
475,25	9373,30
475,72	10052,40
476,18	9928,60
476,64	10081,60
477,11	9764,80
477,57	9930,10
478,03	10609,80
478,49	9980,60
478,96	10376,60
479,42	9452,50
479,88	10812,50
480,35	10138,60
480,81	9981,90
481,27	9554,40
481,73	9802,10
482,20	10012,00
482,66	9301,50
483,12	9736,20
483,58	9193,00
484,05	9720,20
484,51	10708,10
484,97	10058,90
485,43	9913,20
485,89	9146,30
486,36	9759,90
486,82	9160,90
487,28	10072,50
487,74	9312,70
488,21	9323,80
488,67	9544,60
489,13	9976,70
489,59	9851,30
490,05	10400,20
490,52	9313,90
490,98	10010,80
491,44	9290,90
491,90	9487,40
492,36	9132,50
492,83	10418,30
493,29	9984,90
493,75	9882,10
494,21	9415,50
494,67	9725,00
495,14	9567,80
495,60	9444,30
496,06	9866,30
496,52	9635,50
496,98	9763,90
497,44	10732,00
497,91	10426,10
498,37	9472,60
498,83	9947,30
499,29	9684,00
499,75	11176,00
500,21	9821,40
500,67	9561,10
501,14	9750,20
501,60	9616,20
502,06	10183,40
502,52	9802,10
502,98	9755,80
503,44	9854,70
503,90	10054,60
504,37	9568,80
504,83	9976,60
505,29	9981,50
505,75	9437,80
506,21	9788,90
506,67	10286,00
507,13	9783,30
507,59	10138,10
508,05	9997,80
508,51	9562,20
508,98	9402,10
509,44	9193,30
509,90	9649,30
510,36	9828,10
510,82	9535,90
511,28	10549,50
511,74	10487,60
512,20	9441,50
512,66	9191,50
513,12	9394,00
513,58	10062,20
514,04	8962,30
514,51	10299,40
514,97	10780,80
515,43	9185,50
515,89	9956,90
516,35	10405,30
516,81	10301,80
517,27	11158,50
517,73	9996,60
518,19	9900,10
518,65	11763,10
519,11	9784,90
519,57	9528,00
520,03	9284,40
520,49	9433,40
520,95	9941,80
521,41	10128,20
521,87	10253,40
522,33	9837,00
522,79	9301,10
523,25	10813,80
523,71	10323,40
524,17	9655,40
524,63	10639,40
525,09	10173,20
525,55	10100,40
526,01	10569,20
526,47	9913,50
526,93	9904,60
527,39	9665,20
527,85	9751,80
528,31	10240,20
528,77	10167,20
529,23	9753,20
529,69	9433,00
530,15	10156,90
530,61	10161,80
531,07	9114,70
531,53	10421,50
531,99	9815,60
532,45	9809,40
532,91	9873,80
533,37	10081,50
533,83	9690,40
534,29	9337,40
534,75	9767,40
535,21	9595,40
535,67	9972,10
536,12	9586,60
536,58	10070,50
537,04	9368,30
537,50	10140,00
537,96	9794,70
538,42	9889,00
538,88	10745,60
539,34	10174,80
539,80	12836,50
540,26	9161,30
540,72	10782,30
541,18	9942,20
541,63	9336,30
542,09	10133,70
542,55	10047,60
543,01	9652,60
543,47	11348,70
543,93	9298,40
544,39	10890,20
544,85	10203,00
545,31	9667,90
545,76	9657,80
546,22	10348,50
546,68	9793,50
547,14	10055,50
547,60	10119,10
548,06	10029,80
548,52	9737,90
548,98	9736,80
549,43	9307,70
549,89	11098,90
550,35	9744,30
550,81	9351,00
551,27	10018,10
551,73	9894,00
552,19	10828,40
552,64	10003,80
553,10	9455,30
553,56	10079,70
554,02	9759,10
554,48	9388,30
554,93	10041,70
555,39	9907,20
555,85	10860,00
556,31	9960,40
556,77	10563,50
557,23	9113,40
557,68	9987,60
558,14	11098,70
558,60	9575,60
559,06	9729,40
559,52	9406,70
559,97	9520,80
560,43	9519,50
560,89	9910,50
561,35	9728,90
561,81	9742,40
562,26	9579,40
562,72	9502,30
563,18	9968,10
563,64	10474,80
564,09	9446,50
564,55	9907,60
565,01	9665,10
565,47	9731,20
565,92	9935,50
566,38	10485,60
566,84	9721,60
567,30	9584,30
567,75	9866,80
568,21	10330,50
568,67	9574,60
569,13	9782,80
569,58	10108,70
570,04	9883,30
570,50	9788,80
570,96	10280,00
571,41	10175,00
571,87	9819,80
572,33	9916,40
572,78	10025,90
573,24	9523,10
573,70	9594,40
574,16	9899,00
574,61	10547,70
575,07	10251,60
575,53	9309,20
575,98	10006,50
576,44	8974,20
576,90	10481,10
577,36	9686,20
577,81	9686,90
578,27	9276,00
578,73	10595,60
579,18	9695,50
579,64	9635,80
580,10	9952,30
580,55	9989,10
581,01	9746,00
581,47	9895,40
581,92	9962,60
582,38	9792,20
582,84	9288,40
583,29	9735,90
583,75	9966,70
584,21	9715,30
584,66	10179,30
585,12	9539,00
585,57	11323,30
586,03	9773,00
586,49	9639,40
586,94	9776,40
587,40	9700,20
587,86	10382,20
588,31	9293,20
588,77	10051,60
589,22	9790,10
589,68	9504,20
590,14	10035,10
590,59	10133,40
591,05	9573,40
591,51	9246,40
591,96	10628,40
592,42	9631,70
592,87	9927,00
593,33	9734,90
593,78	10335,70
594,24	9841,30
594,70	9754,40
595,15	10589,80
595,61	9742,20
596,06	9386,20
596,52	10649,10
596,98	10235,30
597,43	10518,60
597,89	9972,20
598,34	9222,00
598,80	9872,00
599,25	10561,80
599,71	9546,50
600,16	10166,90
600,62	10443,60
601,08	10129,40
601,53	10235,70
601,99	9189,90
602,44	11457,20
602,90	9608,10
603,35	9894,30
603,81	9305,70
604,26	9067,30
604,72	10117,60
605,17	9623,60
605,63	10143,20
606,08	9976,10
606,54	9158,10
606,99	9854,00
607,45	9614,20
607,90	9867,70
608,36	10234,70
608,81	9840,30
609,27	11177,70
609,72	10337,00
610,18	9768,60
610,63	9595,70
611,09	9886,20
611,54	9311,10
612,00	10803,30
612,45	10169,30
612,91	9916,80
613,36	11554,80
613,82	9312,80
614,27	9306,00
614,73	9266,40
615,18	9316,80
615,64	9756,90
616,09	9814,40
616,54	9364,50
617,00	9686,50
617,45	9790,60
617,91	10288,30
618,36	9505,40
618,82	9675,80
619,27	9748,30
619,72	10279,90
620,18	9655,40
620,63	10213,30
621,09	10356,00
621,54	9781,40
622,00	10304,50
622,45	10578,00
622,90	10324,90
623,36	9608,20
623,81	9486,50
624,27	10361,40
624,72	9188,00
625,17	9807,60
625,63	9941,30
626,08	9481,60
626,54	9807,30
626,99	9977,50
627,44	9375,50
627,90	10148,80
628,35	10237,60
628,81	9067,50
629,26	9810,60
629,71	9834,50
630,17	9456,70
630,62	10115,90
631,07	9704,80
631,53	10243,60
631,98	10003,70
632,43	10398,50
632,89	9465,20
633,34	9613,30
633,79	9488,70
634,25	9640,40
634,70	9403,60
635,15	9591,30
635,61	9500,20
636,06	9170,40
636,51	9818,80
636,97	9737,90
637,42	9433,80
637,87	10196,80
638,33	10299,80
638,78	9619,00
639,23	9775,80
639,69	9311,70
640,14	9093,70
640,59	9932,50
641,05	10320,70
641,50	9159,50
641,95	9639,70
642,40	9661,30
642,86	9105,30
643,31	9600,00
643,76	10164,70
644,22	9435,80
644,67	9286,10
645,12	9565,90
645,57	9413,20
646,03	9840,20
646,48	9820,70
646,93	10019,40
647,38	10202,10
647,84	9857,40
648,29	9962,90
648,74	9234,20
649,19	10452,60
649,65	10050,00
650,10	12226,20
650,55	9292,00
651,00	9444,50
651,46	9572,80
651,91	9796,90
652,36	9362,60
652,81	9746,30
653,27	9500,60
653,72	9401,60
654,17	9725,80
654,62	9998,40
655,07	9677,10
655,53	9240,60
655,98	10104,10
656,43	9400,30
656,88	9808,40
657,33	10037,70
657,79	10110,60
658,24	9369,50
658,69	9867,70
659,14	9331,60
659,59	12300,90
660,05	9560,50
660,50	10339,30
660,95	9678,60
661,40	9363,60
661,85	9651,80
662,30	9349,90
662,76	8997,10
663,21	9982,80
663,66	9542,90
664,11	9551,90
664,56	9767,20
665,01	9242,30
665,47	9809,10
665,92	9192,80
666,37	9882,60
666,82	9813,90
667,27	11215,00
667,72	10492,50
668,17	9357,60
668,62	9991,90
669,08	9352,20
669,53	11015,70
669,98	8919,10
670,43	9363,90
670,88	10352,50
671,33	9792,40
671,78	10647,60
672,23	11125,10
672,69	9777,30
673,14	9770,80
673,59	10456,80
674,04	11734,60
674,49	9891,30
674,94	9944,50
675,39	9100,90
675,84	9197,60
676,29	9814,70
676,74	9735,10
677,19	9601,40
677,64	9576,20
678,10	11250,90
678,55	9355,00
679,00	9621,90
679,45	9794,80
679,90	9481,40
680,35	9732,00
680,80	9803,60
681,25	8841,90
681,70	8921,90
682,15	9573,50
682,60	9792,20
683,05	10131,20
683,50	10004,40
683,95	9822,60
684,40	10547,90
684,85	9995,00
685,30	9775,50
685,75	9942,80
686,20	9690,60
686,65	9274,00
687,10	9798,80
687,55	9513,80
688,00	9865,50
688,45	9685,40
688,90	11340,20
689,35	10101,30
689,80	9033,00
690,25	9621,20
690,70	9673,10
691,15	9172,00
691,60	9778,20
692,05	9088,70
692,50	9775,60
692,95	9643,90
693,40	10146,60
693,85	9990,70
694,30	9740,40
694,75	9771,30
695,20	12406,40
695,65	9809,50
696,10	9866,00
696,55	10916,90
697,00	9702,20
697,45	9482,50
697,90	10076,60
698,35	9347,50
698,80	10235,00
699,24	10143,20
699,69	9403,30
700,14	9628,50
700,59	10135,50
701,04	10190,30
701,49	12086,00
701,94	9195,60
702,39	10607,70
702,84	9395,60
703,29	9582,30
703,74	9901,30
704,19	9677,30
704,63	9545,40
705,08	10426,60
705,53	10308,80
705,98	10235,60
706,43	9184,90
706,88	10029,90
707,33	9800,10
707,78	9647,60
708,22	9884,10
708,67	10264,00
709,12	9845,10
709,57	9500,10
710,02	9708,30
710,47	9809,20
710,92	9453,50
711,37	10088,30
711,81	9870,90
712,26	9850,80
712,71	9360,10
713,16	10937,20
713,61	9699,90
714,06	9797,10
714,50	10512,90
714,95	10299,70
715,40	9674,60
715,85	9856,10
716,30	9587,10
716,75	9587,70
717,19	9276,00
717,64	9138,60
718,09	10073,30
718,54	10764,40
718,99	9357,30
719,43	9227,20
719,88	9772,90
720,33	9626,40
720,78	9450,30
721,23	9890,20
721,67	9410,30
722,12	10013,20
722,57	9643,10
723,02	9194,00
723,47	9041,90
723,91	9756,00
724,36	9042,80
724,81	9979,40
725,26	9036,30
725,70	9636,10
726,15	9710,30
726,60	9815,60
727,05	10815,40
727,49	9324,20
727,94	10453,50
728,39	10024,70
728,84	9566,30
729,28	10428,30
729,73	9461,40
730,18	10223,60
730,63	9271,40
731,07	9810,20
731,52	9929,30
731,97	9876,20
732,41	9908,60
732,86	9367,20
733,31	10103,50
733,76	9873,60
734,20	9423,70
734,65	10170,60
735,10	10096,30
735,54	9780,60
735,99	11399,50
736,44	9378,60
736,89	9787,30
737,33	10205,60
737,78	10086,90
738,23	9748,50
738,67	9645,50
739,12	9801,40
739,57	9155,80
740,01	10388,80
740,46	9914,50
740,91	9318,90
741,35	10002,70
741,80	10074,30
742,25	9734,50
742,69	9758,30
743,14	9339,60
743,59	9331,60
744,03	9702,20
744,48	10335,30
744,92	10254,10
745,37	9756,10
745,82	10205,40
746,26	10578,00
746,71	8805,40
747,16	9351,00
747,60	9123,60
748,05	9964,30
748,49	9674,60
748,94	9548,10
749,39	9948,60
749,83	11400,10
750,28	9763,80
750,73	9695,00
751,17	9192,90
751,62	9506,00
752,06	9522,40
752,51	9623,70
752,95	10881,80
753,40	9495,80
753,85	9548,90
754,29	9118,60
754,74	9647,90
755,18	9230,40
755,63	9674,10
756,07	9771,90
756,52	10365,30
756,97	9569,00
757,41	10442,20
757,86	9779,90
758,30	9677,10
758,75	9692,00
759,19	9672,70
759,64	9301,60
760,08	9632,60
760,53	9988,10
760,98	9745,90
761,42	10018,90
761,87	10474,60
762,31	9606,20
762,76	9059,40
763,20	9505,80
763,65	10149,10
764,09	9709,90
764,54	9212,50
764,98	9463,10
765,43	9956,40
765,87	9256,60
766,32	9161,00
766,76	9448,10
767,21	9764,80
767,65	9754,90
768,10	9930,70
768,54	10132,20
768,99	9575,60
769,43	10903,50
769,88	9252,30
770,32	9616,60
770,77	9392,60
771,21	9175,40
771,65	10002,40
772,10	9790,70
772,54	9906,50
772,99	9082,70
773,43	9592,50
773,88	9463,20
774,32	8887,90
774,77	9595,70
775,21	9310,10
775,65	9826,80
776,10	9667,20
776,54	9267,50
776,99	9584,00
777,43	9525,80
777,88	9986,70
778,32	10009,10
778,76	9505,00
779,21	9807,30
779,65	11416,70
780,10	10514,00
780,54	9728,30
780,99	10254,50
781,43	9941,70
781,87	9327,10
782,32	9827,90
782,76	9193,70
783,20	9560,30
783,65	10033,00
784,09	10244,70
784,54	9614,90
784,98	9551,90
785,42	9603,00
785,87	9350,80
786,31	10075,70
786,75	10357,50
787,20	10338,20
787,64	9242,70
788,09	9435,00
788,53	9859,10
788,97	9368,20
789,42	9589,60
789,86	9430,90
790,30	9773,60
790,75	9252,30
791,19	9399,40
791,63	10347,90
792,08	9521,60
792,52	9711,00
792,96	9388,80
793,41	12256,50
793,85	10252,30
794,29	9818,00
794,74	9874,40
795,18	9750,10
795,62	9271,10
796,06	9959,20
796,51	9650,90
796,95	9727,80
797,39	9462,40
797,84	9265,30
798,28	9714,40
798,72	10244,20
799,16	9880,30
799,61	9308,30
800,05	10683,60
800,49	9940,10
800,94	9242,10
801,38	9944,70
801,82	9794,60
802,26	9306,10
802,71	10273,00
803,15	10701,30
803,59	10082,90
804,03	9845,30
804,48	9627,20
804,92	9507,60
805,36	10720,00
805,80	11043,10
806,25	10820,70
806,69	10114,80
807,13	11004,20
807,57	9562,50
808,01	9726,30
808,46	9210,70
808,90	10029,10
809,34	9712,70
809,78	9414,60
810,23	9321,80
810,67	9958,80
811,11	10529,30
811,55	11768,70
811,99	9527,70
812,44	9393,10
812,88	10082,70
813,32	10775,70
813,76	10257,80
814,20	9797,00
814,64	10151,80
815,09	10045,30
815,53	9906,60
815,97	9525,60
816,41	9349,10
816,85	9473,70
817,29	10124,00
817,74	9743,00
818,18	10304,70
818,62	9496,00
819,06	10136,10
819,50	10375,80
819,94	9535,90
820,39	9961,30
820,83	9553,80
821,27	9749,20
821,71	9389,00
822,15	10649,30
822,59	9334,00
823,03	9824,80
823,47	9844,70
823,92	9223,30
824,36	9832,60
824,80	9710,20
825,24	9901,90
825,68	9902,90
826,12	9319,30
826,56	9546,60
827,00	8839,40
827,44	9741,60
827,88	10137,30
828,33	10388,70
828,77	9449,30
829,21	10236,30
829,65	9947,90
830,09	9484,90
830,53	10649,90
830,97	9543,80
831,41	11152,10
831,85	10289,70
832,29	10098,10
832,73	9109,50
833,17	9668,30
833,61	9664,30
834,05	10556,10
834,49	10103,80
834,93	9688,40
835,37	9406,40
835,82	10338,50
836,26	9675,10
836,70	9938,30
837,14	9578,80
837,58	10313,20
838,02	9455,60
838,46	9395,70
838,90	9878,80
839,34	9751,90
839,78	10619,90
840,22	11017,40
840,66	9858,20
841,10	10438,50
841,54	8995,30
841,98	9458,40
842,42	9217,70
842,86	9539,40
843,30	10124,50
843,74	9801,80
844,18	10080,30
844,62	9711,60
845,06	9370,40
845,50	10040,00
845,94	9614,70
846,37	10083,90
846,81	9473,20
847,25	9383,00
847,69	9807,40
848,13	9422,00
848,57	9565,20
849,01	9538,00
849,45	10056,80
849,89	10455,20
850,33	10121,10
850,77	9637,40
851,21	10167,40
851,65	9341,50
852,09	9912,70
852,53	10335,10
852,97	9510,20
853,40	9498,50
853,84	10190,90
854,28	9141,40
854,72	10218,00
855,16	9115,70
855,60	9460,80
856,04	10351,90
856,48	10638,10
856,92	9699,30
857,36	9965,30
857,79	9820,20
858,23	9234,60
858,67	10454,20
859,11	8958,30
859,55	9362,40
859,99	9506,60
860,43	9592,10
860,87	9818,50
861,30	10136,90
861,74	9431,70
862,18	9720,40
862,62	9881,60
863,06	9474,90
863,50	9491,10
863,94	10085,30
864,37	9370,20
864,81	9739,70
865,25	9672,50
865,69	9114,80
866,13	9693,50
866,57	9035,60
867,00	10143,60
867,44	9310,90
867,88	9909,60
868,32	9635,40
868,76	9435,50
869,19	9967,80
869,63	9741,20
870,07	10531,50
870,51	11214,10
870,95	9184,60
871,38	9631,20
871,82	9726,00
872,26	9413,00
872,70	9857,90
873,14	10022,70
873,57	9723,90
874,01	10330,40
874,45	10196,90
874,89	9542,30
875,32	9321,60
875,76	10358,10
876,20	8970,80
876,64	9865,40
877,07	9683,10
877,51	9674,10
877,95	9754,90
878,39	9654,10
878,82	9875,70
879,26	9516,90
879,70	10644,30
880,14	9370,60
880,57	9245,30
881,01	9548,60
881,45	9715,60
881,89	10111,40
882,32	9589,70
882,76	9610,30
883,20	9632,60
883,63	9590,10
884,07	9309,70
884,51	10086,70
884,94	9802,10
885,38	10003,80
885,82	10255,90
886,26	9538,90
886,69	9395,10
887,13	10711,50
887,57	9216,20
888,00	9317,90
888,44	9641,30
888,88	9521,80
889,31	11431,60
889,75	9079,50
890,19	10155,80
890,62	9407,10
891,06	10006,20
891,50	9911,50
891,93	9105,40
892,37	9407,60
892,81	9590,50
893,24	9314,70
893,68	9504,30
894,11	9910,60
894,55	9566,70
894,99	10140,00
895,42	9523,90
895,86	9316,20
896,30	9835,80
896,73	9913,20
897,17	9354,30
897,60	9190,10
898,04	9260,90
898,48	9789,20
898,91	10304,20
899,35	9352,70
899,78	9365,80
900,22	9390,10
900,66	10113,90
901,09	9977,20
901,53	9473,20
901,96	10745,60
902,40	10907,60
902,84	9291,00
903,27	9466,90
903,71	10670,50
904,14	9338,30
904,58	9912,60
905,01	9462,10
905,45	9606,70
905,88	9171,50
906,32	10342,20
906,76	9725,50
907,19	10167,30
907,63	9873,50
908,06	9527,70
908,50	10061,20
908,93	10633,90
909,37	9549,50
909,80	9136,40
910,24	9834,10
910,67	9865,80
911,11	9555,00
911,54	9368,80
911,98	9558,90
912,41	9805,00
912,85	9529,00
913,28	9969,40
913,72	9931,00
914,15	9600,40
914,59	9159,10
915,02	9213,90
915,46	9532,40
915,89	9419,50
916,33	10166,30
916,76	9447,50
917,20	10329,10
917,63	9408,80
918,07	10199,20
918,50	9350,60
918,94	9641,90
919,37	9608,90
919,81	9989,50
920,24	10098,20
920,67	9703,20
921,11	10623,90
921,54	9977,60
921,98	9523,00
922,41	9210,40
922,85	9199,90
923,28	9877,50
923,72	10523,70
924,15	10057,40
924,58	9018,50
925,02	9997,20
925,45	9291,70
925,89	10088,70
926,32	10936,30
926,75	9577,30
927,19	10037,40
927,62	9132,30
928,06	10964,10
928,49	9704,00
928,92	9174,90
929,36	10196,60
929,79	9521,60
930,23	9892,80
930,66	10192,20
931,09	9382,00
931,53	9961,80
931,96	8933,10
932,39	10695,20
932,83	10252,00
933,26	11240,50
933,70	9583,40
934,13	10338,10
934,56	10222,70
935,00	10080,50
935,43	9917,70
935,86	9184,10
936,30	9620,70
936,73	9364,40
937,16	9960,10
937,60	9240,50
938,03	10071,40
938,46	9461,80
938,90	9565,50
939,33	10064,70
939,76	9259,20
940,19	9680,20
940,63	10232,90
941,06	10937,70
941,49	9491,40
941,93	10271,30
942,36	9354,10
942,79	9519,50
943,23	10089,50
943,66	9170,30
944,09	9107,20
944,52	10070,80
944,96	9420,80
945,39	9993,30
945,82	9691,00
946,26	9832,60
946,69	9840,10
947,12	10404,60
947,55	9557,90
947,99	9709,10
948,42	10002,70
948,85	9088,20
949,28	9140,40
949,72	9218,20
950,15	11208,00
950,58	10362,90
951,01	9529,50
951,45	9461,40
951,88	9936,20
952,31	9075,90
952,74	10160,60
953,17	9475,30
953,61	10800,30
954,04	9125,70
954,47	9378,10
954,90	9440,90
955,33	9300,60
955,77	9468,40
956,20	9961,50
956,63	9268,50
957,06	9968,90
957,49	11378,10
957,93	9206,00
958,36	10012,50
958,79	9813,40
959,22	9386,10
959,65	9391,60
960,08	9388,60
960,52	8890,20
960,95	9528,50
961,38	9997,40
961,81	9965,60
962,24	10242,70
962,67	10091,20
963,11	9331,20
963,54	9766,70
963,97	9468,30
964,40	9686,50
964,83	9607,00
965,26	9321,90
965,69	10168,70
966,13	9490,50
966,56	9604,40
966,99	9999,30
967,42	9354,20
967,85	9409,60
968,28	10269,80
968,71	12105,40
969,14	10074,30
969,57	9660,00
970,01	9930,90
970,44	9269,00
970,87	9443,80
971,30	9941,60
971,73	9468,40
972,16	9754,00
972,59	9134,00
973,02	9340,30
973,45	9488,90
973,88	9995,40
974,31	9541,10
974,74	10088,00
975,17	9796,90
975,61	9381,40
976,04	9422,00
976,47	9339,10
976,90	9748,60
977,33	9235,50
977,76	10082,30
978,19	9799,50
978,62	9542,40
979,05	9529,90
979,48	9474,60
979,91	10144,20
980,34	10026,70
980,77	9372,00
981,20	9820,70
981,63	10229,30
982,06	9675,30
982,49	9654,80
982,92	9417,90
983,35	9522,50
983,78	9388,60
984,21	10232,90
984,64	9966,70
985,07	9144,00
985,50	8868,80
985,93	9554,20
986,36	10044,00
986,79	9463,60
987,22	9332,40
987,65	9886,40
988,08	9705,90
988,51	9742,00
988,94	9630,00
989,37	9797,70
989,80	9609,60
990,23	9506,90
990,66	9814,50
991,09	9652,90
991,51	9854,00
991,94	10677,20
992,37	9522,40
992,80	9255,20
993,23	9667,40
993,66	9343,60
994,09	9507,00
994,52	9927,20
994,95	10037,00
995,38	9802,20
995,81	9735,50
996,24	9056,50
996,67	9119,30
997,09	8876,50
997,52	10297,50
997,95	10065,80
998,38	9326,70
998,81	9789,20
999,24	9223,10
999,67	10517,90
1000,10	9691,00
1000,53	9751,40
1000,95	10409,20
1001,38	9296,80
1001,81	9797,80
1002,24	10016,80
1002,67	9687,90
1003,10	9783,30
1003,53	9657,20
1003,95	9995,70
1004,38	9240,70
1004,81	9899,60
1005,24	9798,80
1005,67	10371,70
1006,10	9642,40
1006,52	9103,70
1006,95	9939,50
1007,38	9667,50
1007,81	9289,10
1008,24	9130,60
1008,67	9609,40
1009,09	9463,40
1009,52	11815,70
1009,95	10207,20
1010,38	10200,90
1010,81	9829,50
1011,23	9968,10
1011,66	10249,30
1012,09	9526,20
1012,52	10023,30
1012,95	9667,70
1013,37	9873,40
1013,80	9901,50
1014,23	9224,00
1014,66	10432,60
1015,08	9026,90
1015,51	10086,30
1015,94	9381,40
1016,37	9731,70
1016,80	9295,90
1017,22	9856,60
1017,65	9494,00
1018,08	9576,20
1018,51	9635,90
1018,93	8993,30
1019,36	11348,10
1019,79	10328,40
1020,21	10091,80
1020,64	9523,90
1021,07	9657,40
1021,50	9852,80
1021,92	9872,80
1022,35	9990,10
1022,78	9655,10
1023,21	11803,90
1023,63	10310,00
1024,06	10216,20
1024,49	10071,90
1024,91	9812,40
1025,34	9790,00
1025,77	10035,80
1026,19	9318,20
1026,62	9301,80
1027,05	11021,80
1027,47	10046,50
1027,90	9929,40
1028,33	9753,00
1028,75	9829,50
1029,18	9403,90
1029,61	10999,20
1030,03	9772,90
1030,46	9662,90
1030,89	9827,00
1031,31	10473,40
1031,74	9089,60
1032,17	9814,20
1032,59	10139,80
1033,02	9497,90
1033,45	10251,40
1033,87	9305,00
1034,30	9328,60
1034,73	9925,70
1035,15	10176,50
1035,58	9507,50
1036,00	10640,40
1036,43	9414,30
1036,86	9425,40
1037,28	9809,40
1037,71	9085,40
1038,13	10147,50
1038,56	10268,90
1038,99	10087,00
1039,41	10347,70
1039,84	10591,10
1040,26	9613,60
1040,69	9640,80
1041,11	9882,60
1041,54	9561,80
1041,97	10445,50
1042,39	10450,80
1042,82	10116,70
1043,24	10263,30
1043,67	9757,10
1044,09	10202,70
1044,52	9371,80
1044,95	9630,20
1045,37	9602,00
1045,80	9178,70
1046,22	9750,70
1046,65	10040,00
1047,07	9350,50
1047,50	9971,40
1047,92	10207,70
1048,35	9347,60
1048,77	10292,30
1049,20	10101,10
1049,62	10213,20
1050,05	9633,80
1050,47	9710,20
1050,90	10068,30
1051,32	10270,20
1051,75	10464,30
1052,17	10412,70
1052,60	9817,20
1053,02	10051,30
1053,45	8835,30
1053,87	9779,80
1054,30	8998,30
1054,72	9630,80
1055,15	9467,70
1055,57	9916,40
1056,00	10043,80
1056,42	10863,70
1056,85	10376,90
1057,27	10278,50
1057,70	9815,70
1058,12	12026,90
1058,54	9306,50
1058,97	9999,00
1059,39	10093,30
1059,82	9623,30
1060,24	9616,30
1060,67	9517,50
1061,09	10178,10
1061,51	9783,60
1061,94	9657,30
1062,36	10189,80
1062,79	10530,20
1063,21	9902,40
1063,64	9679,00
1064,06	9425,40
1064,48	10237,00
1064,91	10239,30
1065,33	9586,40
1065,76	9423,40
1066,18	9132,40
1066,60	10255,70
1067,03	9801,00
1067,45	9743,90
1067,87	9895,20
1068,30	9538,00
1068,72	10743,20
1069,15	9701,90
1069,57	9496,90
1069,99	9175,00
1070,42	10268,40
1070,84	10367,90
1071,26	10271,10
1071,69	9650,40
1072,11	10105,90
1072,53	9501,00
1072,96	9328,00
1073,38	9122,50
1073,80	10034,80
1074,23	9545,40
1074,65	9140,70
1075,07	9465,40
1075,50	9536,80
1075,92	9819,50
1076,34	9461,90
1076,77	9427,90
1077,19	9616,20
1077,61	10236,10
1078,04	9523,20
1078,46	10151,00
1078,88	10581,00
1079,30	8910,40
1079,73	9885,40
1080,15	9521,50
1080,57	9678,30
1081,00	10001,50
1081,42	9760,40
1081,84	9610,30
1082,26	9963,80
1082,69	9680,60
1083,11	9609,00
1083,53	9772,90
1083,95	9792,10
1084,38	10275,00
1084,80	9729,00
1085,22	9620,40
1085,64	10390,50
1086,07	9366,60
1086,49	9611,90
1086,91	9898,40
1087,33	8963,40
1087,76	10089,60
1088,18	20561,50
1088,60	9936,60
1089,02	9468,20
1089,45	9488,70
1089,87	9634,30
1090,29	10261,20
1090,71	9621,20
1091,13	9244,00
1091,56	9601,60
1091,98	9567,30
1092,40	9382,90
1092,82	9683,20
1093,24	9447,20
1093,66	9685,80
1094,09	9579,00
1094,51	9761,40
1094,93	9586,50
1095,35	9733,30
1095,77	9388,00
1096,19	9691,20
1096,62	10001,00
1097,04	9217,50
1097,46	9713,60
1097,88	9363,40
1098,30	10038,90
1098,72	10034,00
1099,15	9918,30
1099,57	9635,60
1099,99	9520,70
1100,41	9345,30
1100,83	9515,00
1101,25	9478,80
1101,67	9758,90
1102,09	9188,50
1102,52	9410,90
1102,94	9610,30
1103,36	9660,00
1103,78	9817,40
1104,20	9521,30
1104,62	10554,20
1105,04	8798,50
1105,46	9711,80
1105,88	9611,20
1106,30	9297,30
1106,73	9541,00
1107,15	8750,10
1107,57	9047,70
1107,99	10128,20
1108,41	9035,50
1108,83	9873,40
1109,25	9783,90
1109,67	9793,80
1110,09	8904,40
1110,51	9359,00
1110,93	8900,60
1111,35	9297,90
1111,77	8909,20
1112,19	9073,90
1112,61	8793,40
1113,03	9228,40
1113,45	9004,10
1113,87	9107,50
1114,29	9450,30
1114,71	9611,50
1115,13	9192,80
1115,55	9350,20
1115,98	9219,90
1116,40	9522,80
1116,82	9430,70
1117,24	9141,40
1117,66	8962,00
1118,08	2047,50
1118,50	2200,60
1118,91	2188,10
1119,33	2188,50
>>>>>End Processed Spectral Data<<<<<
