SpectraSuite Data File
++++++++++++++++++++++++++++++++++++
Date: Tue Oct 14 10:30:13 EEST 2014
User: OO Maya
Dark Spectrum Present: No
Reference Spectrum Present: No
Number of Sampled Component Spectra: 1
Spectrometers: MAYP11278
Integration Time (usec): 600000 (MAYP11278)
Spectra Averaged: 15 (MAYP11278)
Boxcar Smoothing: 0 (MAYP11278)
Correct for Electrical Dark: No (MAYP11278)
Strobe/Lamp Enabled: No (MAYP11278)
Correct for Detector Non-linearity: No (MAYP11278)
Correct for Stray Light: No (MAYP11278)
Number of Pixels in Processed Spectrum: 2068
>>>>>Begin Processed Spectral Data<<<<<
188,14	2313,47
188,62	2225,80
189,09	2197,47
189,57	2198,27
190,05	3294,40
190,53	3364,47
191,01	3376,93
191,49	3378,47
191,97	3467,93
192,44	3379,53
192,92	3358,13
193,40	3316,33
193,88	3390,20
194,36	3378,40
194,84	3413,67
195,31	3365,40
195,79	3444,93
196,27	3367,27
196,75	3395,20
197,23	3581,13
197,70	3379,20
198,18	3338,33
198,66	3378,67
199,14	3335,20
199,62	3418,60
200,09	3444,67
200,57	3375,13
201,05	3386,07
201,53	3448,53
202,01	3448,07
202,48	3440,20
202,96	3337,20
203,44	3412,73
203,92	3348,67
204,40	3461,80
204,87	3487,73
205,35	3369,40
205,83	3371,27
206,31	3497,00
206,78	3382,27
207,26	3433,40
207,74	3573,73
208,22	3423,93
208,69	3460,20
209,17	3389,53
209,65	3463,93
210,13	3449,33
210,60	3410,00
211,08	3411,60
211,56	3455,67
212,04	3406,47
212,51	3363,53
212,99	3538,67
213,47	3454,07
213,95	3394,80
214,42	3526,13
214,90	3418,67
215,38	3513,00
215,85	3448,47
216,33	3453,33
216,81	3455,00
217,29	3450,00
217,76	3375,13
218,24	3431,20
218,72	3502,67
219,19	3337,80
219,67	3372,73
220,15	3377,67
220,62	3415,80
221,10	3568,13
221,58	3392,87
222,05	3477,93
222,53	3383,13
223,01	3474,13
223,49	3395,27
223,96	3470,13
224,44	3422,47
224,92	3393,73
225,39	3373,27
225,87	3424,13
226,35	3385,27
226,82	3420,73
227,30	3499,47
227,77	3413,80
228,25	3469,93
228,73	3471,87
229,20	3474,73
229,68	3419,93
230,16	3437,00
230,63	3406,27
231,11	3475,73
231,59	3516,67
232,06	3436,73
232,54	3444,33
233,02	3364,33
233,49	3432,60
233,97	3452,20
234,44	3654,13
234,92	3450,80
235,40	3376,33
235,87	3384,80
236,35	3360,27
236,82	3493,27
237,30	3570,20
237,78	3402,33
238,25	3439,93
238,73	3441,13
239,20	3442,67
239,68	3415,07
240,16	3365,47
240,63	3474,13
241,11	3527,67
241,58	3436,87
242,06	3415,13
242,53	3492,47
243,01	3511,60
243,49	3368,00
243,96	3387,07
244,44	3486,53
244,91	3536,13
245,39	3424,40
245,86	3501,87
246,34	5636,20
246,82	3339,00
247,29	3440,20
247,77	3434,60
248,24	3443,87
248,72	3454,40
249,19	3332,93
249,67	3443,20
250,14	3485,93
250,62	3461,87
251,09	3520,93
251,57	3448,47
252,04	3571,20
252,52	3525,47
253,00	3405,80
253,47	3512,60
253,95	3433,67
254,42	3433,53
254,90	3450,80
255,37	3454,87
255,85	3498,60
256,32	3414,47
256,80	3456,20
257,27	3468,53
257,75	3503,07
258,22	3651,80
258,70	3459,27
259,17	3404,80
259,65	3456,00
260,12	3485,33
260,59	3537,67
261,07	3421,40
261,54	3419,20
262,02	3517,27
262,49	3389,33
262,97	3470,87
263,44	3435,00
263,92	3370,07
264,39	3489,00
264,87	3510,13
265,34	3416,87
265,82	3450,80
266,29	3461,67
266,76	3498,80
267,24	3441,07
267,71	3440,07
268,19	3469,07
268,66	3467,93
269,14	3347,60
269,61	3386,40
270,09	3391,47
270,56	3467,20
271,03	3500,20
271,51	3412,00
271,98	3447,47
272,46	3366,80
272,93	3377,93
273,40	3334,20
273,88	3454,53
274,35	3685,60
274,83	3476,80
275,30	3475,73
275,78	3383,93
276,25	3430,20
276,72	3477,60
277,20	3485,07
277,67	3354,40
278,14	3408,60
278,62	3341,07
279,09	3673,07
279,57	3376,47
280,04	3374,87
280,51	3694,07
280,99	3538,00
281,46	3707,07
281,93	3455,60
282,41	3566,07
282,88	3455,00
283,36	3455,40
283,83	3484,60
284,30	3416,73
284,78	3380,60
285,25	3501,80
285,72	3451,93
286,20	3456,40
286,67	3474,20
287,14	3371,60
287,62	3475,40
288,09	3535,27
288,56	3428,13
289,04	3500,67
289,51	3323,40
289,98	3535,53
290,46	3393,33
290,93	3459,27
291,40	3396,13
291,88	3482,47
292,35	3599,93
292,82	3398,87
293,29	3520,80
293,77	3410,13
294,24	3476,53
294,71	3473,73
295,19	3404,07
295,66	3455,60
296,13	3465,87
296,61	3561,13
297,08	3557,27
297,55	3484,33
298,02	3472,13
298,50	3484,40
298,97	3419,47
299,44	3554,80
299,91	3427,67
300,39	3482,20
300,86	3403,00
301,33	3515,73
301,81	3507,07
302,28	3499,93
302,75	3380,07
303,22	3491,07
303,70	3486,00
304,17	3402,13
304,64	3405,33
305,11	3391,33
305,58	3453,80
306,06	3462,07
306,53	3459,87
307,00	3491,60
307,47	3417,93
307,95	3419,87
308,42	3462,20
308,89	3414,73
309,36	3507,73
309,83	3518,60
310,31	3477,47
310,78	3453,73
311,25	3471,73
311,72	3423,07
312,20	3526,87
312,67	3452,27
313,14	3587,67
313,61	3416,20
314,08	3438,40
314,56	3467,20
315,03	3420,73
315,50	3407,93
315,97	3519,13
316,44	3484,47
316,91	3466,00
317,39	3494,27
317,86	3465,60
318,33	3639,13
318,80	3449,93
319,27	3444,67
319,74	3378,73
320,22	3483,93
320,69	3573,60
321,16	3504,47
321,63	3449,67
322,10	3348,80
322,57	3399,13
323,04	3583,87
323,52	3439,67
323,99	3643,40
324,46	3374,93
324,93	3479,27
325,40	3445,20
325,87	3419,80
326,34	3436,67
326,82	3429,53
327,29	3490,73
327,76	3476,20
328,23	3485,47
328,70	3461,33
329,17	3430,80
329,64	3417,67
330,11	3427,20
330,58	3414,73
331,05	3513,33
331,53	3482,20
332,00	3581,87
332,47	3396,33
332,94	3589,80
333,41	3519,60
333,88	3492,13
334,35	3542,60
334,82	3463,67
335,29	3485,33
335,76	3701,47
336,23	3392,73
336,70	3455,47
337,18	3432,87
337,65	3477,33
338,12	3428,87
338,59	3428,53
339,06	3581,13
339,53	3517,67
340,00	3398,67
340,47	3409,13
340,94	3412,33
341,41	3490,13
341,88	3544,87
342,35	3427,13
342,82	3465,13
343,29	3497,20
343,76	3477,27
344,23	3421,40
344,70	3458,40
345,17	3408,27
345,64	3454,07
346,11	3495,00
346,58	3428,87
347,05	3422,67
347,52	3565,40
347,99	3426,67
348,46	3535,67
348,93	3468,07
349,40	3371,53
349,87	3469,87
350,34	3516,93
350,81	3458,20
351,28	3419,93
351,75	3480,60
352,22	3590,47
352,69	3477,33
353,16	3443,40
353,63	3471,00
354,10	3494,47
354,57	3476,67
355,04	3492,80
355,51	3471,27
355,98	3568,20
356,45	3405,00
356,92	3577,27
357,39	3404,60
357,86	3610,80
358,33	3501,67
358,80	3380,40
359,27	3402,27
359,74	3419,80
360,21	3422,20
360,68	3512,27
361,14	3560,47
361,61	3434,93
362,08	3450,53
362,55	3459,40
363,02	3441,40
363,49	3462,47
363,96	3615,47
364,43	3499,73
364,90	3418,33
365,37	3491,00
365,84	3434,60
366,31	3395,67
366,77	3473,27
367,24	3456,93
367,71	5139,93
368,18	3324,80
368,65	3390,87
369,12	3521,47
369,59	3393,40
370,06	3525,27
370,53	3478,40
370,99	3431,67
371,46	4348,53
371,93	3466,87
372,40	3415,93
372,87	3378,47
373,34	3446,20
373,81	3482,27
374,27	3389,27
374,74	3407,00
375,21	3481,00
375,68	3367,87
376,15	3549,27
376,62	3427,53
377,09	3403,53
377,55	3390,13
378,02	3485,87
378,49	3467,80
378,96	3448,53
379,43	3455,67
379,90	3446,20
380,36	3489,87
380,83	3565,27
381,30	3456,80
381,77	3559,13
382,24	3563,67
382,71	3374,93
383,17	3482,47
383,64	3444,60
384,11	3536,73
384,58	3464,13
385,05	3824,13
385,51	3456,73
385,98	3432,40
386,45	3447,87
386,92	3579,33
387,39	3393,33
387,85	3370,53
388,32	3524,67
388,79	3484,47
389,26	3543,73
389,72	3412,67
390,19	3508,47
390,66	3468,27
391,13	3476,33
391,59	3474,00
392,06	3473,67
392,53	3481,13
393,00	3445,73
393,46	3445,53
393,93	3618,40
394,40	3451,33
394,87	3533,13
395,33	3409,93
395,80	3495,73
396,27	3800,00
396,74	3387,00
397,20	3495,80
397,67	3505,00
398,14	3392,87
398,61	3451,73
399,07	3425,60
399,54	3393,27
400,01	3521,13
400,47	3386,20
400,94	3447,20
401,41	3413,40
401,88	3492,47
402,34	3473,00
402,81	3458,27
403,28	3416,53
403,74	3570,20
404,21	3460,33
404,68	3536,93
405,14	3593,13
405,61	3539,60
406,08	3402,40
406,54	3520,27
407,01	3495,20
407,48	3606,87
407,95	3459,73
408,41	3465,27
408,88	3486,93
409,35	3391,73
409,81	3537,47
410,28	3387,73
410,74	3534,80
411,21	3396,67
411,68	3567,87
412,14	3428,53
412,61	3359,40
413,08	3494,20
413,54	3430,47
414,01	3471,27
414,48	3502,80
414,94	3580,07
415,41	3448,53
415,88	3564,07
416,34	3483,47
416,81	3476,00
417,27	3579,93
417,74	3486,67
418,21	3449,27
418,67	3470,00
419,14	3453,40
419,60	3513,80
420,07	3410,47
420,54	3514,20
421,00	3389,40
421,47	3458,47
421,93	3419,33
422,40	3484,47
422,87	3423,20
423,33	3461,00
423,80	3484,60
424,26	3514,47
424,73	3449,80
425,19	3513,67
425,66	3464,07
426,13	3566,40
426,59	3423,40
427,06	3551,60
427,52	3503,00
427,99	3522,00
428,45	3397,07
428,92	3524,20
429,38	3482,07
429,85	3457,73
430,32	3476,80
430,78	3687,13
431,25	3367,20
431,71	3440,00
432,18	3568,67
432,64	3534,80
433,11	3443,60
433,57	3419,60
434,04	3468,07
434,50	3433,47
434,97	3504,87
435,43	3382,13
435,90	3506,93
436,36	3459,13
436,83	3397,07
437,29	3523,67
437,76	3481,00
438,22	3482,40
438,69	3412,60
439,15	3441,27
439,62	3739,40
440,08	3479,47
440,55	3523,20
441,01	3538,53
441,48	3418,27
441,94	3434,87
442,41	3639,73
442,87	3390,13
443,34	3486,60
443,80	3483,07
444,27	3377,60
444,73	3589,13
445,20	3473,80
445,66	3464,40
446,12	3456,67
446,59	3478,07
447,05	3444,87
447,52	3465,87
447,98	3413,73
448,45	3407,27
448,91	3488,53
449,38	3493,60
449,84	3444,27
450,30	3401,13
450,77	3407,87
451,23	3415,73
451,70	3457,33
452,16	3496,07
452,63	3397,80
453,09	3527,53
453,55	3450,13
454,02	3438,20
454,48	3442,67
454,95	3493,93
455,41	3411,80
455,87	3447,87
456,34	3507,60
456,80	3415,20
457,27	3523,40
457,73	3437,60
458,19	3435,93
458,66	3375,53
459,12	3464,13
459,58	3433,27
460,05	3448,27
460,51	3418,80
460,98	3364,60
461,44	3547,13
461,90	3501,33
462,37	3395,73
462,83	3356,60
463,29	3519,40
463,76	3405,73
464,22	3448,87
464,68	3445,40
465,15	3369,47
465,61	3387,73
466,07	3497,47
466,54	3412,20
467,00	3463,80
467,46	3469,00
467,93	3409,40
468,39	3437,67
468,85	3460,53
469,32	3418,80
469,78	3360,47
470,24	3446,13
470,71	3428,33
471,17	3383,60
471,63	3398,47
472,10	3357,60
472,56	3379,20
473,02	3391,67
473,48	3508,47
473,95	3414,53
474,41	3358,40
474,87	3396,20
475,34	3338,53
475,80	3442,60
476,26	3407,00
476,72	3426,67
477,19	3405,67
477,65	3407,27
478,11	3505,53
478,58	3409,73
479,04	3470,47
479,50	3337,73
479,96	3519,27
480,43	3427,87
480,89	3403,00
481,35	3354,87
481,81	3389,53
482,28	3396,27
482,74	3312,80
483,20	3375,60
483,66	3312,60
484,13	3366,07
484,59	3488,07
485,05	3394,53
485,51	3373,07
485,97	3279,47
486,44	3365,47
486,90	3280,53
487,36	3391,33
487,82	3296,67
488,29	3302,80
488,75	3340,47
489,21	3384,53
489,67	3368,93
490,13	3434,67
490,60	3299,40
491,06	3366,80
491,52	3284,87
491,98	3322,33
492,44	3255,87
492,90	3426,27
493,37	3387,20
493,83	3358,47
494,29	3299,33
494,75	3340,87
495,21	3314,80
495,67	3298,13
496,14	3351,80
496,60	3321,73
497,06	3334,67
497,52	3493,33
497,98	3431,07
498,44	3309,87
498,91	3363,00
499,37	3328,47
499,83	3517,87
500,29	3346,73
500,75	3302,07
501,21	3338,93
501,67	3315,73
502,14	3380,40
502,60	3327,27
503,06	3339,53
503,52	3329,07
503,98	3375,80
504,44	3309,40
504,90	3365,67
505,36	3356,00
505,82	3291,53
506,29	3335,60
506,75	3402,07
507,21	3336,40
507,67	3364,00
508,13	3359,73
508,59	3301,13
509,05	3291,40
509,51	3258,27
509,97	3316,47
510,43	3334,00
510,89	3291,40
511,35	3420,27
511,82	3426,87
512,28	3287,40
512,74	3251,13
513,20	3280,13
513,66	3371,53
514,12	3234,00
514,58	3396,67
515,04	3472,07
515,50	3241,07
515,96	3353,93
516,42	3407,13
516,88	3391,67
517,34	3531,60
517,80	3364,80
518,26	3329,80
518,72	3601,00
519,18	3330,53
519,64	3293,33
520,10	3260,60
520,56	3284,40
521,02	3347,73
521,48	3368,33
521,94	3380,73
522,40	3327,80
522,86	3264,60
523,32	3471,60
523,78	3396,73
524,24	3323,20
524,70	3518,87
525,16	3381,20
525,62	3379,07
526,08	3433,87
526,54	3364,87
527,00	3343,93
527,46	3331,93
527,92	3317,53
528,38	3386,93
528,84	3381,80
529,30	3329,20
529,76	3266,93
530,22	3373,27
530,68	3375,00
531,14	3268,87
531,60	3414,87
532,06	3332,87
532,52	3341,67
532,98	3328,40
533,44	3371,53
533,90	3317,40
534,36	3271,47
534,82	3327,13
535,28	3298,20
535,73	3341,60
536,19	3305,60
536,65	3367,73
537,11	3281,60
537,57	3382,93
538,03	3331,53
538,49	3325,00
538,95	3451,67
539,41	3379,80
539,87	3737,00
540,33	3251,07
540,79	3458,93
541,24	3349,33
541,70	3268,20
542,16	3372,00
542,62	3360,40
543,08	3311,80
543,54	3522,67
544,00	3259,87
544,46	3505,07
544,91	3397,07
545,37	3314,53
545,83	3317,07
546,29	3387,80
546,75	3342,07
547,21	3373,00
547,67	3385,47
548,13	3356,73
548,58	3325,53
549,04	3319,67
549,50	3299,20
549,96	3502,27
550,42	3321,93
550,88	3260,60
551,33	3373,53
551,79	3337,60
552,25	3475,27
552,71	3353,47
553,17	3286,13
553,63	3369,87
554,08	3330,53
554,54	3268,53
555,00	3359,33
555,46	3345,07
555,92	3469,40
556,37	3343,80
556,83	3425,27
557,29	3245,53
557,75	3362,73
558,21	3496,93
558,66	3310,73
559,12	3318,27
559,58	3285,40
560,04	3283,87
560,50	3285,33
560,95	3345,47
561,41	3322,07
561,87	3322,73
562,33	3292,93
562,78	3294,93
563,24	3335,80
563,70	3413,67
564,16	3278,47
564,61	3347,87
565,07	3310,80
565,53	3320,47
565,99	3350,73
566,44	3426,27
566,90	3321,20
567,36	3292,27
567,82	3336,93
568,27	3406,13
568,73	3298,87
569,19	3327,67
569,65	3372,80
570,10	3338,53
570,56	3327,73
571,02	3388,60
571,47	3386,40
571,93	3325,40
572,39	3348,80
572,85	3377,13
573,30	3300,33
573,76	3304,33
574,22	3345,53
574,67	3434,27
575,13	3394,27
575,59	3256,33
576,04	3351,20
576,50	3231,47
576,96	3420,27
577,42	3312,93
577,87	3322,60
578,33	3268,00
578,79	3427,07
579,24	3358,93
579,70	3300,00
580,16	3363,80
580,61	3349,73
581,07	3337,53
581,53	3335,73
581,98	3350,00
582,44	3314,47
582,89	3256,53
583,35	3320,27
583,81	3349,47
584,26	3329,00
584,72	3375,20
585,18	3293,13
585,63	3522,00
586,09	3309,00
586,55	3312,73
587,00	3328,47
587,46	3325,13
587,91	3409,80
588,37	3262,13
588,83	3367,93
589,28	3318,87
589,74	3305,67
590,19	3352,53
590,65	3376,33
591,11	3305,13
591,56	3248,47
592,02	3435,47
592,47	3302,00
592,93	3368,20
593,39	3332,60
593,84	3388,33
594,30	3333,20
594,75	3328,87
595,21	3431,13
595,66	3301,80
596,12	3273,20
596,58	3437,20
597,03	3393,67
597,49	3421,20
597,94	3353,60
598,40	3257,13
598,85	3322,47
599,31	3425,13
599,76	3293,20
600,22	3364,13
600,67	3407,20
601,13	3372,00
601,59	3390,07
602,04	3255,67
602,50	3568,40
602,95	3307,00
603,41	3352,67
603,86	3250,33
604,32	3245,07
604,77	3368,67
605,23	3314,33
605,68	3369,13
606,14	3337,33
606,59	3243,73
607,05	3330,13
607,50	3318,80
607,96	3339,27
608,41	3381,40
608,87	3342,80
609,32	3518,73
609,78	3394,20
610,23	3324,67
610,69	3295,13
611,14	3356,40
611,60	3263,33
612,05	3479,73
612,50	3375,27
612,96	3339,53
613,41	3555,13
613,87	3258,27
614,32	3258,33
614,78	3261,27
615,23	3263,87
615,69	3314,07
616,14	3328,67
616,59	3276,00
617,05	3323,13
617,50	3327,27
617,96	3377,07
618,41	3286,80
618,87	3303,13
619,32	3314,00
619,77	3386,87
620,23	3313,93
620,68	3367,07
621,14	3409,60
621,59	3325,73
622,05	3393,73
622,50	3424,73
622,95	3404,40
623,41	3281,73
623,86	3281,73
624,32	3393,87
624,77	3261,67
625,22	3312,87
625,68	3350,73
626,13	3276,80
626,58	3325,53
627,04	3342,33
627,49	3277,80
627,95	3372,27
628,40	3384,00
628,85	3244,27
629,31	3325,87
629,76	3335,60
630,21	3287,93
630,67	3373,13
631,12	3335,00
631,57	3379,73
632,03	3362,27
632,48	3399,20
632,93	3286,73
633,39	3307,67
633,84	3289,93
634,29	3298,13
634,75	3258,60
635,20	3303,20
635,65	3293,80
636,11	3244,80
636,56	3335,13
637,01	3329,53
637,47	3276,00
637,92	3374,67
638,37	3390,53
638,83	3293,67
639,28	3335,00
639,73	3271,07
640,18	3242,40
640,64	3356,20
641,09	3400,93
641,54	3248,07
642,00	3299,00
642,45	3311,73
642,90	3253,87
643,35	3296,00
643,81	3377,87
644,26	3288,53
644,71	3263,13
645,17	3290,53
645,62	3272,07
646,07	3315,93
646,52	3333,67
646,98	3353,73
647,43	3371,20
647,88	3332,80
648,33	3344,60
648,79	3255,87
649,24	3416,53
649,69	3371,00
650,14	3631,73
650,59	3272,40
651,05	3268,07
651,50	3288,47
651,95	3345,20
652,40	3264,20
652,86	3323,20
653,31	3283,27
653,76	3281,20
654,21	3342,80
654,66	3344,20
655,12	3307,13
655,57	3268,13
656,02	3378,73
656,47	3279,93
656,92	3320,73
657,38	3358,60
657,83	3362,73
658,28	3274,53
658,73	3330,73
659,18	3265,13
659,63	3658,53
660,09	3295,47
660,54	3408,60
660,99	3314,40
661,44	3280,93
661,89	3309,60
662,34	3264,80
662,80	3218,47
663,25	3344,53
663,70	3295,53
664,15	3306,00
664,60	3313,07
665,05	3259,00
665,50	3334,33
665,96	3247,07
666,41	3339,87
666,86	3341,13
667,31	3526,73
667,76	3431,47
668,21	3268,87
668,66	3336,47
669,11	3263,00
669,56	3491,60
670,02	3209,93
670,47	3288,87
670,92	3418,00
671,37	3325,47
671,82	3434,40
672,27	3491,80
672,72	3304,53
673,17	3334,73
673,62	3399,20
674,07	3564,53
674,52	3335,00
674,98	3359,73
675,43	3232,53
675,88	3254,73
676,33	3334,93
676,78	3302,20
677,23	3316,47
677,68	3305,07
678,13	3520,00
678,58	3273,87
679,03	3296,33
679,48	3346,27
679,93	3277,60
680,38	3335,87
680,83	3310,20
681,28	3210,80
681,73	3211,07
682,18	3300,07
682,63	3321,67
683,08	3359,80
683,53	3350,67
683,98	3339,20
684,43	3399,73
684,89	3359,33
685,34	3327,13
685,79	3348,20
686,24	3304,27
686,69	3270,00
687,14	3326,00
687,59	3294,13
688,04	3328,00
688,49	3309,00
688,93	3521,73
689,38	3360,00
689,83	3235,93
690,28	3310,27
690,73	3316,67
691,18	3243,07
691,63	3307,27
692,08	3234,60
692,53	3317,87
692,98	3306,87
693,43	3361,93
693,88	3353,27
694,33	3314,40
694,78	3332,73
695,23	3653,53
695,68	3337,53
696,13	3328,00
696,58	3458,53
697,03	3310,93
697,48	3278,00
697,93	3346,67
698,38	3271,53
698,82	3369,13
699,27	3386,80
699,72	3277,40
700,17	3306,47
700,62	3370,27
701,07	3393,73
701,52	3623,60
701,97	3250,80
702,42	3435,87
702,87	3276,67
703,32	3297,33
703,76	3342,00
704,21	3307,27
704,66	3276,13
705,11	3412,73
705,56	3396,33
706,01	3383,40
706,46	3243,80
706,91	3360,67
707,36	3319,27
707,80	3303,33
708,25	3344,87
708,70	3380,60
709,15	3332,13
709,60	3298,00
710,05	3323,20
710,50	3319,93
710,94	3286,27
711,39	3359,40
711,84	3324,93
712,29	3333,00
712,74	3279,80
713,19	3474,13
713,63	3316,27
714,08	3346,27
714,53	3427,60
714,98	3391,87
715,43	3307,00
715,87	3332,93
716,32	3292,00
716,77	3293,13
717,22	3250,20
717,67	3241,73
718,12	3350,80
718,56	3446,20
719,01	3264,40
719,46	3254,20
719,91	3342,13
720,35	3308,47
720,80	3280,73
721,25	3337,60
721,70	3280,60
722,15	3351,07
722,59	3301,40
723,04	3246,27
723,49	3231,33
723,94	3332,07
724,38	3219,07
724,83	3354,20
725,28	3234,67
725,73	3316,40
726,17	3300,80
726,62	3315,40
727,07	3465,27
727,52	3264,27
727,96	3423,20
728,41	3367,60
728,86	3306,33
729,31	3412,33
729,75	3279,07
730,20	3384,67
730,65	3260,73
731,09	3328,60
731,54	3347,20
731,99	3332,87
732,44	3346,13
732,88	3272,67
733,33	3372,73
733,78	3346,87
734,22	3285,93
734,67	3383,07
735,12	3363,93
735,57	3323,40
736,01	3531,07
736,46	3277,40
736,91	3339,07
737,35	3385,93
737,80	3367,20
738,25	3331,40
738,69	3301,13
739,14	3315,40
739,59	3251,93
740,03	3405,27
740,48	3359,93
740,93	3269,27
741,37	3350,00
741,82	3363,20
742,26	3313,33
742,71	3319,07
743,16	3256,13
743,60	3268,73
744,05	3305,67
744,50	3388,67
744,94	3388,53
745,39	3354,40
745,84	3378,53
746,28	3427,87
746,73	3207,93
747,17	3267,47
747,62	3240,73
748,07	3345,07
748,51	3318,73
748,96	3282,80
749,40	3341,80
749,85	3530,67
750,30	3336,47
750,74	3309,80
751,19	3252,73
751,63	3294,20
752,08	3295,53
752,53	3301,80
752,97	3468,20
753,42	3275,27
753,86	3302,87
754,31	3240,40
754,75	3287,00
755,20	3250,33
755,64	3302,47
756,09	3328,33
756,54	3408,93
756,98	3301,53
757,43	3417,27
757,87	3316,60
758,32	3303,00
758,76	3309,87
759,21	3307,93
759,65	3261,67
760,10	3304,93
760,54	3348,80
760,99	3315,93
761,43	3364,73
761,88	3414,80
762,33	3297,40
762,77	3224,27
763,22	3303,87
763,66	3372,07
764,11	3309,07
764,55	3261,60
765,00	3286,87
765,44	3338,87
765,89	3263,20
766,33	3250,87
766,77	3280,53
767,22	3331,13
767,66	3331,27
768,11	3334,13
768,55	3370,47
769,00	3309,67
769,44	3462,73
769,89	3271,53
770,33	3309,20
770,78	3278,00
771,22	3248,33
771,67	3358,07
772,11	3332,73
772,56	3336,60
773,00	3232,20
773,44	3294,73
773,89	3293,13
774,33	3216,07
774,78	3325,00
775,22	3257,47
775,67	3316,87
776,11	3305,40
776,55	3266,53
777,00	3302,87
777,44	3301,67
777,89	3348,20
778,33	3360,53
778,77	3296,53
779,22	3327,73
779,66	3530,60
780,11	3409,73
780,55	3333,40
780,99	3402,73
781,44	3356,40
781,88	3269,47
782,33	3336,40
782,77	3249,13
783,21	3309,73
783,66	3353,73
784,10	3380,00
784,55	3302,00
784,99	3288,27
785,43	3303,73
785,88	3272,00
786,32	3354,40
786,76	3401,53
787,21	3396,40
787,65	3263,60
788,09	3273,13
788,54	3325,40
788,98	3271,33
789,42	3288,93
789,87	3281,67
790,31	3328,80
790,75	3256,93
791,20	3277,27
791,64	3393,87
792,08	3294,33
792,53	3325,93
792,97	3286,60
793,41	3641,87
793,86	3393,80
794,30	3317,20
794,74	3332,87
795,18	3316,53
795,63	3257,40
796,07	3346,73
796,51	3309,40
796,96	3323,20
797,40	3289,00
797,84	3253,33
798,28	3312,47
798,73	3390,80
799,17	3339,60
799,61	3267,40
800,06	3434,60
800,50	3346,07
800,94	3270,67
801,38	3347,00
801,83	3337,07
802,27	3272,67
802,71	3399,27
803,15	3444,27
803,60	3373,00
804,04	3330,53
804,48	3302,93
804,92	3281,00
805,37	3442,60
805,81	3490,87
806,25	3456,07
806,69	3376,67
807,13	3475,27
807,58	3302,27
808,02	3318,07
808,46	3262,87
808,90	3350,47
809,34	3329,73
809,79	3285,53
810,23	3257,00
810,67	3345,07
811,11	3418,47
811,55	3577,73
812,00	3291,60
812,44	3278,80
812,88	3371,67
813,32	3446,20
813,76	3382,80
814,21	3324,87
814,65	3395,27
815,09	3361,53
815,53	3347,80
815,97	3288,67
816,41	3273,33
816,85	3291,87
817,30	3369,27
817,74	3315,47
818,18	3398,73
818,62	3300,93
819,06	3363,73
819,50	3402,00
819,94	3300,80
820,39	3356,07
820,83	3289,07
821,27	3329,40
821,71	3272,93
822,15	3431,13
822,59	3262,07
823,03	3335,07
823,47	3342,60
823,92	3254,20
824,36	3329,33
824,80	3320,20
825,24	3335,07
825,68	3347,00
826,12	3262,07
826,56	3306,47
827,00	3216,60
827,44	3321,53
827,88	3377,67
828,32	3413,33
828,77	3283,40
829,21	3386,87
829,65	3359,53
830,09	3281,93
830,53	3441,53
830,97	3304,07
831,41	3515,60
831,85	3395,13
832,29	3367,80
832,73	3244,33
833,17	3314,60
833,61	3314,80
834,05	3433,73
834,49	3365,20
834,93	3310,47
835,37	3286,53
835,81	3407,80
836,25	3324,87
836,69	3335,27
837,13	3319,27
837,57	3403,40
838,01	3268,80
838,45	3290,67
838,89	3343,07
839,33	3315,07
839,77	3432,13
840,21	3481,07
840,65	3322,40
841,09	3423,13
841,53	3216,47
841,97	3284,07
842,41	3236,00
842,85	3295,27
843,29	3368,60
843,73	3326,27
844,17	3368,20
844,61	3322,27
845,05	3274,73
845,49	3376,60
845,93	3293,87
846,37	3378,67
846,81	3291,73
847,25	3268,40
847,69	3335,33
848,13	3281,33
848,57	3292,07
849,01	3298,67
849,45	3365,13
849,89	3405,60
850,32	3361,27
850,76	3301,13
851,20	3384,00
851,64	3273,60
852,08	3349,13
852,52	3399,47
852,96	3290,67
853,40	3297,87
853,84	3375,53
854,28	3241,87
854,72	3394,00
855,16	3242,47
855,59	3296,73
856,03	3393,93
856,47	3444,47
856,91	3321,80
857,35	3345,13
857,79	3323,27
858,23	3263,00
858,67	3419,40
859,10	3219,20
859,54	3277,60
859,98	3293,67
860,42	3313,67
860,86	3334,40
861,30	3367,27
861,74	3281,20
862,17	3304,87
862,61	3357,73
863,05	3278,27
863,49	3294,40
863,93	3375,47
864,37	3275,47
864,80	3316,53
865,24	3309,13
865,68	3246,00
866,12	3311,40
866,56	3226,33
867,00	3368,40
867,43	3267,53
867,87	3343,07
868,31	3307,53
868,75	3291,40
869,19	3351,00
869,62	3314,33
870,06	3435,80
870,50	3501,13
870,94	3248,73
871,38	3310,87
871,81	3316,87
872,25	3273,07
872,69	3330,20
873,13	3350,47
873,56	3311,00
874,00	3393,40
874,44	3375,07
874,88	3308,67
875,31	3253,20
875,75	3397,67
876,19	3210,20
876,63	3357,73
877,06	3320,20
877,50	3322,87
877,94	3316,40
878,38	3323,67
878,81	3331,40
879,25	3311,53
879,69	3443,60
880,13	3265,67
880,56	3248,20
881,00	3301,20
881,44	3328,27
881,87	3365,00
882,31	3298,20
882,75	3307,33
883,19	3301,00
883,62	3298,47
884,06	3266,87
884,50	3361,67
884,93	3329,87
885,37	3346,47
885,81	3377,33
886,24	3302,13
886,68	3266,93
887,12	3454,80
887,55	3249,60
887,99	3268,20
888,43	3310,67
888,86	3283,87
889,30	3564,33
889,74	3250,80
890,17	3372,00
890,61	3271,40
891,05	3368,73
891,48	3350,33
891,92	3251,33
892,36	3288,33
892,79	3298,60
893,23	3257,33
893,67	3288,33
894,10	3348,13
894,54	3292,27
894,97	3368,13
895,41	3292,53
895,85	3264,80
896,28	3329,40
896,72	3344,20
897,16	3276,33
897,59	3252,40
898,03	3283,67
898,46	3340,73
898,90	3398,00
899,34	3267,27
899,77	3271,33
900,21	3278,67
900,64	3390,33
901,08	3341,73
901,51	3289,33
901,95	3458,47
902,39	3465,47
902,82	3278,00
903,26	3291,00
903,69	3446,93
904,13	3265,73
904,56	3342,33
905,00	3283,40
905,43	3301,80
905,87	3248,07
906,31	3405,60
906,74	3320,80
907,18	3394,27
907,61	3344,47
908,05	3306,73
908,48	3357,93
908,92	3431,20
909,35	3298,73
909,79	3245,67
910,22	3345,00
910,66	3354,40
911,09	3312,00
911,53	3264,87
911,96	3289,33
912,40	3328,87
912,83	3298,13
913,27	3345,20
913,70	3344,47
914,14	3315,80
914,57	3252,93
915,01	3253,93
915,44	3296,47
915,88	3277,60
916,31	3385,47
916,75	3284,47
917,18	3391,00
917,62	3289,60
918,05	3375,33
918,49	3272,67
918,92	3306,73
919,35	3309,47
919,79	3346,27
920,22	3368,73
920,66	3314,80
921,09	3438,13
921,53	3349,67
921,96	3287,13
922,40	3253,47
922,83	3261,40
923,26	3329,07
923,70	3428,93
924,13	3359,07
924,57	3240,93
925,00	3368,33
925,44	3258,27
925,87	3368,80
926,30	3489,60
926,74	3302,00
927,17	3363,40
927,61	3231,40
928,04	3488,53
928,47	3312,80
928,91	3252,20
929,34	3384,80
929,77	3294,33
930,21	3344,27
930,64	3381,67
931,08	3269,53
931,51	3354,47
931,94	3231,47
932,38	3444,07
932,81	3403,13
933,24	3522,33
933,68	3299,60
934,11	3396,40
934,54	3387,73
934,98	3371,87
935,41	3339,87
935,84	3251,67
936,28	3295,93
936,71	3274,93
937,14	3346,60
937,58	3275,20
938,01	3368,53
938,44	3286,07
938,88	3293,53
939,31	3364,20
939,74	3268,00
940,18	3318,40
940,61	3398,13
941,04	3478,80
941,48	3281,60
941,91	3393,60
942,34	3279,00
942,77	3294,80
943,21	3367,47
943,64	3248,33
944,07	3237,53
944,51	3356,20
944,94	3358,80
945,37	3354,73
945,80	3315,33
946,24	3336,73
946,67	3344,13
947,10	3411,73
947,53	3292,00
947,97	3315,73
948,40	3363,47
948,83	3243,73
949,26	3252,27
949,70	3262,67
950,13	3508,80
950,56	3412,87
950,99	3292,60
951,43	3282,13
951,86	3350,87
952,29	3241,60
952,72	3388,07
953,15	3289,40
953,59	3452,67
954,02	3247,47
954,45	3273,80
954,88	3297,80
955,31	3292,60
955,75	3290,93
956,18	3359,07
956,61	3251,13
957,04	3357,20
957,47	3534,07
957,91	3248,73
958,34	3351,73
958,77	3325,33
959,20	3281,47
959,63	3279,07
960,06	3278,93
960,50	3210,53
960,93	3288,33
961,36	3368,67
961,79	3364,47
962,22	3390,20
962,65	3368,40
963,09	3269,67
963,52	3336,27
963,95	3288,60
964,38	3324,60
964,81	3305,00
965,24	3271,73
965,67	3382,67
966,10	3298,33
966,54	3311,07
966,97	3368,47
967,40	3283,27
967,83	3284,40
968,26	3399,47
968,69	3642,20
969,12	3361,07
969,55	3310,67
969,98	3344,87
970,42	3257,93
970,85	3279,60
971,28	3341,07
971,71	3287,60
972,14	3316,87
972,57	3252,13
973,00	3267,53
973,43	3288,40
973,86	3347,20
974,29	3295,67
974,72	3374,07
975,15	3348,73
975,58	3277,80
976,01	3278,53
976,45	3277,93
976,88	3339,67
977,31	3256,13
977,74	3365,53
978,17	3326,20
978,60	3305,73
979,03	3301,53
979,46	3289,73
979,89	3380,40
980,32	3360,27
980,75	3276,93
981,18	3340,27
981,61	3388,20
982,04	3313,20
982,47	3312,00
982,90	3278,80
983,33	3295,67
983,76	3283,87
984,19	3387,07
984,62	3374,73
985,05	3270,60
985,48	3212,13
985,91	3309,40
986,34	3370,87
986,77	3302,40
987,20	3271,87
987,63	3347,60
988,06	3308,33
988,49	3341,53
988,92	3301,73
989,35	3329,93
989,78	3311,33
990,20	3287,00
990,63	3341,07
991,06	3320,07
991,49	3341,00
991,92	3440,13
992,35	3288,33
992,78	3264,80
993,21	3308,40
993,64	3275,87
994,07	3277,60
994,50	3348,07
994,93	3361,00
995,36	3328,53
995,79	3322,33
996,21	3226,87
996,64	3248,93
997,07	3206,80
997,50	3384,20
997,93	3359,67
998,36	3296,80
998,79	3317,60
999,22	3263,93
999,65	3432,80
1000,07	3307,87
1000,50	3334,60
1000,93	3410,53
1001,36	3265,13
1001,79	3327,60
1002,22	3355,00
1002,65	3317,33
1003,08	3334,20
1003,50	3303,00
1003,93	3353,33
1004,36	3263,27
1004,79	3348,20
1005,22	3324,13
1005,65	3411,60
1006,07	3288,13
1006,50	3239,47
1006,93	3344,20
1007,36	3309,87
1007,79	3281,87
1008,22	3245,67
1008,64	3312,27
1009,07	3285,40
1009,50	3596,20
1009,93	3394,53
1010,36	3376,20
1010,78	3335,53
1011,21	3354,40
1011,64	3388,07
1012,07	3313,60
1012,50	3355,80
1012,92	3325,00
1013,35	3339,80
1013,78	3351,40
1014,21	3259,80
1014,64	3418,00
1015,06	3232,13
1015,49	3370,07
1015,92	3262,47
1016,35	3319,13
1016,77	3261,87
1017,20	3347,33
1017,63	3295,07
1018,06	4652,53
1018,48	3277,67
1018,91	3219,87
1019,34	3530,87
1019,77	3404,60
1020,19	3365,60
1020,62	3291,53
1021,05	3316,27
1021,47	3338,13
1021,90	3340,93
1022,33	3355,80
1022,76	3320,27
1023,18	3592,53
1023,61	3398,87
1024,04	3385,13
1024,46	3356,40
1024,89	3329,73
1025,32	3348,80
1025,75	3384,13
1026,17	3277,87
1026,60	3261,80
1027,03	3504,80
1027,45	3367,67
1027,88	3354,53
1028,31	3320,00
1028,73	3335,53
1029,16	3283,53
1029,59	3483,87
1030,01	3319,47
1030,44	3320,00
1030,87	3349,67
1031,29	3414,53
1031,72	3245,47
1032,15	3349,33
1032,57	3369,27
1033,00	3316,53
1033,42	3398,60
1033,85	3269,13
1034,28	3268,67
1034,70	3354,27
1035,13	3380,73
1035,56	3292,33
1035,98	3460,93
1036,41	3291,13
1036,83	3300,60
1037,26	3334,60
1037,69	3240,20
1038,11	3366,93
1038,54	3384,13
1038,96	3377,47
1039,39	3398,53
1039,82	3440,27
1040,24	3302,00
1040,67	3308,60
1041,09	3347,00
1041,52	3307,20
1041,95	3428,40
1042,37	3415,13
1042,80	3367,27
1043,22	3394,93
1043,65	3328,60
1044,07	3388,33
1044,50	3267,00
1044,92	3309,40
1045,35	3302,67
1045,78	3265,87
1046,20	3343,80
1046,63	3371,87
1047,05	3279,93
1047,48	3350,73
1047,90	3401,20
1048,33	3278,27
1048,75	3401,53
1049,18	3379,33
1049,60	3372,60
1050,03	3310,20
1050,45	3320,13
1050,88	3363,87
1051,30	3399,07
1051,73	3451,60
1052,15	3409,27
1052,58	3333,93
1053,00	3388,00
1053,43	3207,80
1053,85	3334,53
1054,28	3213,80
1054,70	3315,53
1055,13	3283,40
1055,55	3354,53
1055,98	3366,87
1056,40	3473,47
1056,83	3389,07
1057,25	3406,07
1057,68	3338,60
1058,10	3623,47
1058,52	3293,27
1058,95	3358,47
1059,37	3374,33
1059,80	3317,93
1060,22	3317,33
1060,65	3297,87
1061,07	3395,53
1061,50	3335,00
1061,92	3308,80
1062,34	3385,93
1062,77	3447,67
1063,19	3338,13
1063,62	3322,80
1064,04	3291,07
1064,46	3409,07
1064,89	3402,07
1065,31	3305,07
1065,74	3268,60
1066,16	3246,80
1066,58	3397,60
1067,01	3333,53
1067,43	3328,73
1067,86	3356,73
1068,28	3306,40
1068,70	3471,93
1069,13	3340,73
1069,55	3291,93
1069,97	3254,07
1070,40	3390,87
1070,82	3401,40
1071,25	3401,73
1071,67	3310,80
1072,09	3373,13
1072,52	3302,80
1072,94	3266,33
1073,36	3260,93
1073,79	3382,60
1074,21	3303,60
1074,63	3251,73
1075,06	3290,87
1075,48	3298,80
1075,90	3348,40
1076,33	3295,87
1076,75	3273,67
1077,17	3308,27
1077,59	3393,93
1078,02	3314,13
1078,44	3374,13
1078,86	3442,33
1079,29	3209,73
1079,71	3353,00
1080,13	3304,20
1080,56	3327,40
1080,98	3367,07
1081,40	3322,60
1081,82	3309,93
1082,25	3352,13
1082,67	3317,27
1083,09	3320,40
1083,51	3319,87
1083,94	3328,47
1084,36	3390,13
1084,78	3334,87
1085,21	3296,00
1085,63	3422,13
1086,05	3275,13
1086,47	3298,27
1086,89	3356,73
1087,32	3242,33
1087,74	3370,60
1088,16	5958,53
1088,58	3321,67
1089,01	3283,67
1089,43	3287,47
1089,85	3307,47
1090,27	3416,73
1090,69	3324,40
1091,12	3275,40
1091,54	3318,40
1091,96	3310,27
1092,38	3284,87
1092,80	3325,80
1093,23	3305,27
1093,65	3319,53
1094,07	3304,00
1094,49	3319,47
1094,91	3312,20
1095,34	3322,27
1095,76	3279,53
1096,18	3327,33
1096,60	3344,33
1097,02	3260,60
1097,44	3312,87
1097,87	3285,80
1098,29	3367,73
1098,71	3362,80
1099,13	3373,20
1099,55	3303,73
1099,97	3288,80
1100,39	3273,47
1100,82	3299,40
1101,24	3282,73
1101,66	3321,47
1102,08	3251,80
1102,50	3283,60
1102,92	3302,40
1103,34	3310,07
1103,76	3332,60
1104,19	3931,53
1104,61	3418,33
1105,03	3199,27
1105,45	3327,27
1105,87	3298,13
1106,29	3260,60
1106,71	3310,87
1107,13	3197,80
1107,55	3232,73
1107,97	3376,47
1108,39	3220,53
1108,82	3346,27
1109,24	3322,00
1109,66	3330,67
1110,08	3206,40
1110,50	3274,87
1110,92	3226,40
1111,34	3266,80
1111,76	3220,13
1112,18	3232,20
1112,60	3199,80
1113,02	3279,40
1113,44	3238,67
1113,86	3228,20
1114,28	3287,53
1114,70	3319,33
1115,12	3251,87
1115,54	3290,20
1115,96	3257,87
1116,38	3307,67
1116,80	3287,67
1117,22	3256,33
1117,64	3202,87
1118,06	2175,80
1118,48	2199,53
1118,90	2198,00
1119,32	2199,27
>>>>>End Processed Spectral Data<<<<<
