SpectraSuite Data File
++++++++++++++++++++++++++++++++++++
Date: Thu Mar 13 10:26:01 EET 2014
User: OO Maya
Dark Spectrum Present: No
Reference Spectrum Present: No
Number of Sampled Component Spectra: 1
Spectrometers: MAYP11278
Integration Time (usec): 600000 (MAYP11278)
Spectra Averaged: 15 (MAYP11278)
Boxcar Smoothing: 0 (MAYP11278)
Correct for Electrical Dark: No (MAYP11278)
Strobe/Lamp Enabled: No (MAYP11278)
Correct for Detector Non-linearity: No (MAYP11278)
Correct for Stray Light: No (MAYP11278)
Number of Pixels in Processed Spectrum: 2068
>>>>>Begin Processed Spectral Data<<<<<
188,22	2310,13
188,70	2224,53
189,18	2195,73
189,66	2196,73
190,13	3230,87
190,61	3279,73
191,09	3301,20
191,57	3297,60
192,05	3392,60
192,53	3315,13
193,00	3273,87
193,48	3228,87
193,96	3305,27
194,44	3285,93
194,92	3319,60
195,40	3283,07
195,87	3352,13
196,35	3279,93
196,83	3299,13
197,31	3487,27
197,79	3303,53
198,26	3248,60
198,74	3283,87
199,22	3267,73
199,70	3326,73
200,18	3362,00
200,65	3283,73
201,13	3288,33
201,61	3362,47
202,09	3348,33
202,56	3361,87
203,04	3243,73
203,52	3333,73
204,00	3266,20
204,47	3369,40
204,95	3404,73
205,43	3279,27
205,91	3276,27
206,39	3417,47
206,86	3301,33
207,34	3344,13
207,82	3500,67
208,30	3324,07
208,77	3371,27
209,25	3301,47
209,73	3378,53
210,20	3350,93
210,68	3322,53
211,16	3311,80
211,64	3355,87
212,11	3315,13
212,59	3288,67
213,07	3448,00
213,55	3365,93
214,02	3296,27
214,50	3450,07
214,98	3342,67
215,45	3423,73
215,93	3345,33
216,41	3374,47
216,89	3370,80
217,36	3372,60
217,84	3283,93
218,32	3324,40
218,79	3414,00
219,27	3237,20
219,75	3296,33
220,22	3301,20
220,70	3313,13
221,18	3485,00
221,65	3300,33
222,13	3401,07
222,61	3302,20
223,08	3388,27
223,56	3311,80
224,04	3402,67
224,51	3319,73
224,99	3301,07
225,47	3273,27
225,94	3333,00
226,42	3298,73
226,90	3341,87
227,37	3402,93
227,85	3325,93
228,33	3371,60
228,80	3385,67
229,28	3368,67
229,76	3326,40
230,23	3341,73
230,71	3310,33
231,18	3381,87
231,66	3413,67
232,14	3358,27
232,61	3363,07
233,09	3286,20
233,57	3341,27
234,04	3362,67
234,52	3576,93
234,99	3357,40
235,47	3301,27
235,95	3303,13
236,42	3269,47
236,90	3408,33
237,37	3485,47
237,85	3305,00
238,33	3351,47
238,80	3354,87
239,28	3356,53
239,75	3343,33
240,23	3273,00
240,70	3385,27
241,18	3431,73
241,66	3359,80
242,13	3315,67
242,61	3392,20
243,08	3427,80
243,56	3275,53
244,03	3295,40
244,51	3390,60
244,99	3451,93
245,46	3331,53
245,94	3420,60
246,41	3418,00
246,89	3299,27
247,36	3347,33
247,84	3338,53
248,31	3354,53
248,79	3374,00
249,26	3240,27
249,74	3355,67
250,22	3385,47
250,69	3367,27
251,17	3440,13
251,64	3351,13
252,12	3484,53
252,59	3421,40
253,07	3318,20
253,54	3420,87
254,02	3354,93
254,49	3329,27
254,97	3369,07
255,44	3373,07
255,92	3409,33
256,39	3313,87
256,87	3376,53
257,34	3383,40
257,82	3412,87
258,29	3551,53
258,77	3363,87
259,24	3326,93
259,72	3365,40
260,19	3395,40
260,67	3463,13
261,14	3332,93
261,61	3334,40
262,09	3416,80
262,56	3307,60
263,04	3368,13
263,51	3362,07
263,99	3277,33
264,46	3418,13
264,94	3437,07
265,41	3337,07
265,89	3372,07
266,36	3367,40
266,83	3405,13
267,31	3337,53
267,78	3344,53
268,26	3371,20
268,73	3379,60
269,21	3260,33
269,68	3301,93
270,15	3323,47
270,63	3397,13
271,10	3427,93
271,58	3327,60
272,05	3370,27
272,53	3286,33
273,00	3283,33
273,47	3238,67
273,95	3360,40
274,42	3607,53
274,90	3411,00
275,37	3414,60
275,84	3314,27
276,32	3344,07
276,79	3389,20
277,26	3400,93
277,74	3293,20
278,21	3347,47
278,69	3293,73
279,16	3639,40
279,63	3333,93
280,11	3318,20
280,58	3616,07
281,05	3426,33
281,53	3574,53
282,00	3315,00
282,48	3441,40
282,95	3335,33
283,42	3329,73
283,90	3374,27
284,37	3309,27
284,84	3284,60
285,32	3405,33
285,79	3343,87
286,26	3375,60
286,74	3393,87
287,21	3275,07
287,68	3384,53
288,16	3466,20
288,63	3330,93
289,10	3397,20
289,58	3239,67
290,05	3450,00
290,52	3304,27
291,00	3369,40
291,47	3311,33
291,94	3394,27
292,41	3505,13
292,89	3306,00
293,36	3427,13
293,83	3326,20
294,31	3400,07
294,78	3374,53
295,25	3309,27
295,73	3372,33
296,20	3372,13
296,67	3474,27
297,14	3465,40
297,62	3391,20
298,09	3397,33
298,56	3397,27
299,03	3328,27
299,51	3461,27
299,98	3345,07
300,45	3385,33
300,92	3322,60
301,40	3431,33
301,87	3414,53
302,34	3405,80
302,82	3297,93
303,29	3414,67
303,76	3420,40
304,23	3312,87
304,70	3324,47
305,18	3300,13
305,65	3372,07
306,12	3371,80
306,59	3377,80
307,07	3385,13
307,54	3324,67
308,01	3327,40
308,48	3379,93
308,95	3334,67
309,43	3420,20
309,90	3426,67
310,37	3387,00
310,84	3380,13
311,32	3390,53
311,79	3322,07
312,26	3424,00
312,73	3352,07
313,20	3495,67
313,68	3328,33
314,15	3342,27
314,62	3375,53
315,09	3328,47
315,56	3314,93
316,03	3422,53
316,51	3392,80
316,98	3377,60
317,45	3399,20
317,92	3361,47
318,39	3562,80
318,86	3361,13
319,34	3353,93
319,81	3288,27
320,28	3390,93
320,75	3472,40
321,22	3406,80
321,69	3353,73
322,16	3250,80
322,64	3302,33
323,11	3487,67
323,58	3347,07
324,05	3532,00
324,52	3279,20
324,99	3387,87
325,46	3358,73
325,94	3348,93
326,41	3349,60
326,88	3343,20
327,35	3408,73
327,82	3396,53
328,29	3395,93
328,76	3378,13
329,23	3347,80
329,70	3333,53
330,18	3334,07
330,65	3308,47
331,12	3419,40
331,59	3390,27
332,06	3495,60
332,53	3313,13
333,00	3492,27
333,47	3423,33
333,94	3399,80
334,41	3453,60
334,88	3385,07
335,35	3397,93
335,83	3613,07
336,30	3296,67
336,77	3357,73
337,24	3331,00
337,71	3384,07
338,18	3340,07
338,65	3352,27
339,12	3469,53
339,59	3415,07
340,06	3294,27
340,53	3319,27
341,00	3295,13
341,47	3401,33
341,94	3424,60
342,41	3324,60
342,88	3372,67
343,35	3417,27
343,82	3385,93
344,29	3338,87
344,76	3363,73
345,23	3313,93
345,70	3359,33
346,17	3397,47
346,64	3331,47
347,11	3333,40
347,58	3475,13
348,05	3329,60
348,52	3455,40
348,99	3362,93
349,46	3275,67
349,93	3367,33
350,40	3420,27
350,87	3363,33
351,34	3314,40
351,81	3378,13
352,28	3487,33
352,75	3383,73
353,22	3351,60
353,69	3371,33
354,16	3403,13
354,63	3388,47
355,10	3404,47
355,57	3383,60
356,04	3469,33
356,51	3318,53
356,98	3478,60
357,45	3303,00
357,92	3513,53
358,39	3407,80
358,86	3300,13
359,33	3310,60
359,80	3326,47
360,27	3329,60
360,74	3415,20
361,20	3458,20
361,67	3344,60
362,14	3348,00
362,61	3362,53
363,08	3346,07
363,55	3368,60
364,02	3531,93
364,49	3400,53
364,96	3331,33
365,43	3402,67
365,90	3322,40
366,37	3298,60
366,83	3373,07
367,30	3357,73
367,77	4890,60
368,24	3226,47
368,71	3296,87
369,18	3416,13
369,65	3289,93
370,12	3418,47
370,59	3383,67
371,05	3331,33
371,52	3335,27
371,99	3389,87
372,46	3310,27
372,93	3276,67
373,40	3357,73
373,87	3368,00
374,33	3289,13
374,80	3307,27
375,27	3371,27
375,74	3266,47
376,21	3454,07
376,68	3335,73
377,15	3299,47
377,61	3286,07
378,08	3384,47
378,55	3373,67
379,02	3356,07
379,49	3360,67
379,96	3360,47
380,42	3399,40
380,89	3468,87
381,36	3370,80
381,83	3469,73
382,30	3464,13
382,76	3272,93
383,23	3379,80
383,70	3346,33
384,17	3425,07
384,64	3371,73
385,10	3725,13
385,57	3361,33
386,04	3326,93
386,51	3338,93
386,98	3480,80
387,44	3296,87
387,91	3280,27
388,38	3406,40
388,85	3375,33
389,31	3441,00
389,78	3309,40
390,25	3398,53
390,72	3366,33
391,19	3390,53
391,65	3379,13
392,12	3366,80
392,59	3376,73
393,06	3329,80
393,52	3350,27
393,99	3525,33
394,46	3358,53
394,93	3424,33
395,39	3312,40
395,86	3415,73
396,33	3705,87
396,80	3290,80
397,26	3397,93
397,73	3415,53
398,20	3285,60
398,66	3355,33
399,13	3330,20
399,60	3301,33
400,07	3439,80
400,53	3285,87
401,00	3351,60
401,47	3320,13
401,93	3402,33
402,40	3375,07
402,87	3348,87
403,34	3300,27
403,80	3456,33
404,27	3357,80
404,74	3448,07
405,20	3478,93
405,67	3451,67
406,14	3301,40
406,60	3418,27
407,07	3386,87
407,54	3504,93
408,00	3357,93
408,47	3363,67
408,94	3389,67
409,40	3288,53
409,87	3430,07
410,34	3292,87
410,80	3439,87
411,27	3309,13
411,74	3445,53
412,20	3339,93
412,67	3248,73
413,14	3389,00
413,60	3337,67
414,07	3370,80
414,53	3399,80
415,00	3480,60
415,47	3337,87
415,93	3468,73
416,40	3382,40
416,87	3365,07
417,33	3490,60
417,80	3384,20
418,26	3347,00
418,73	3373,73
419,20	3361,60
419,66	3416,73
420,13	3312,33
420,59	3411,53
421,06	3296,47
421,53	3355,47
421,99	3317,47
422,46	3382,40
422,92	3318,80
423,39	3354,40
423,86	3381,80
424,32	3402,47
424,79	3353,20
425,25	3416,80
425,72	3351,47
426,18	3464,20
426,65	3345,33
427,11	3449,13
427,58	3404,07
428,05	3415,93
428,51	3293,27
428,98	3440,40
429,44	3389,20
429,91	3355,53
430,37	3374,80
430,84	3587,13
431,30	3284,80
431,77	3339,47
432,23	3469,27
432,70	3446,67
433,17	3340,80
433,63	3311,13
434,10	3363,33
434,56	3334,87
435,03	3407,73
435,49	3273,33
435,96	3403,33
436,42	3368,80
436,89	3289,80
437,35	3410,53
437,82	3385,07
438,28	3371,80
438,75	3310,27
439,21	3340,20
439,68	3643,73
440,14	3384,67
440,61	3412,67
441,07	3439,13
441,54	3305,87
442,00	3336,40
442,47	3542,13
442,93	3291,67
443,39	3357,27
443,86	3370,87
444,32	3282,47
444,79	3485,60
445,25	3411,40
445,72	3363,00
446,18	3362,33
446,65	3379,53
447,11	3341,80
447,58	3378,53
448,04	3323,47
448,50	3311,00
448,97	3403,80
449,43	3389,27
449,90	3342,93
450,36	3313,20
450,83	3288,53
451,29	3335,20
451,75	3380,60
452,22	3407,53
452,68	3305,07
453,15	3431,87
453,61	3356,87
454,08	3341,20
454,54	3358,07
455,00	3390,53
455,47	3322,00
455,93	3365,40
456,40	3415,87
456,86	3316,93
457,32	3456,47
457,79	3345,40
458,25	3352,27
458,71	3288,00
459,18	3372,93
459,64	3347,53
460,11	3367,27
460,57	3324,13
461,03	3288,73
461,50	3451,87
461,96	3417,80
462,42	3301,27
462,89	3286,27
463,35	3435,20
463,81	3335,80
464,28	3371,53
464,74	3383,07
465,21	3294,73
465,67	3319,47
466,13	3422,87
466,60	3357,53
467,06	3389,93
467,52	3398,20
467,99	3347,93
468,45	3371,93
468,91	3389,67
469,37	3366,87
469,84	3297,67
470,30	3385,47
470,76	3355,20
471,23	3327,00
471,69	3336,13
472,15	3298,13
472,62	3328,33
473,08	3342,33
473,54	3449,07
474,01	3362,27
474,47	3310,47
474,93	3356,87
475,39	3276,73
475,86	3387,27
476,32	3350,93
476,78	3385,73
477,25	3348,73
477,71	3364,93
478,17	3460,00
478,63	3369,13
479,10	3437,93
479,56	3317,07
480,02	3485,53
480,48	3395,13
480,95	3379,27
481,41	3329,27
481,87	3353,47
482,33	3378,93
482,80	3297,93
483,26	3340,53
483,72	3273,33
484,18	3338,07
484,65	3460,40
485,11	3380,67
485,57	3349,47
486,03	3258,73
486,49	3343,33
486,96	3248,40
487,42	3385,47
487,88	3272,80
488,34	3290,53
488,80	3324,07
489,27	3371,47
489,73	3363,60
490,19	3430,87
490,65	3287,07
491,11	3359,73
491,58	3262,00
492,04	3320,80
492,50	3243,33
492,96	3425,47
493,42	3373,60
493,89	3355,40
494,35	3302,87
494,81	3331,47
495,27	3309,67
495,73	3297,47
496,19	3357,40
496,66	3325,40
497,12	3344,07
497,58	3482,33
498,04	3433,20
498,50	3320,93
498,96	3356,40
499,43	3323,67
499,89	3532,53
500,35	3354,13
500,81	3310,60
501,27	3344,73
501,73	3329,47
502,19	3397,93
502,65	3355,60
503,12	3355,67
503,58	3355,60
504,04	3374,20
504,50	3307,87
504,96	3377,13
505,42	3367,80
505,88	3311,93
506,34	3347,93
506,80	3412,60
507,27	3340,47
507,73	3388,60
508,19	3378,67
508,65	3320,67
509,11	3302,47
509,57	3268,33
510,03	3328,33
510,49	3343,33
510,95	3303,67
511,41	3430,93
511,87	3442,27
512,33	3303,27
512,80	3258,60
513,26	3305,47
513,72	3385,60
514,18	3231,93
514,64	3421,47
515,10	3487,60
515,56	3263,20
516,02	3360,13
516,48	3431,73
516,94	3413,87
517,40	3530,87
517,86	3392,40
518,32	3353,33
518,78	3638,60
519,24	3343,20
519,70	3309,60
520,16	3282,87
520,62	3304,40
521,08	3369,60
521,54	3384,60
522,00	3405,67
522,46	3353,20
522,92	3286,67
523,38	3471,80
523,84	3414,33
524,30	3321,33
524,76	3458,67
525,22	3393,13
525,68	3402,33
526,14	3454,13
526,60	3374,60
527,06	3352,93
527,52	3340,87
527,98	3337,60
528,44	3409,00
528,90	3387,73
529,36	3337,60
529,82	3287,40
530,28	3386,00
530,74	3389,47
531,20	3267,13
531,66	3435,47
532,12	3336,93
532,58	3355,40
533,04	3358,13
533,50	3386,73
533,96	3338,87
534,42	3291,20
534,88	3326,53
535,33	3314,87
535,79	3362,53
536,25	3317,93
536,71	3383,87
537,17	3287,80
537,63	3389,53
538,09	3347,67
538,55	3359,27
539,01	3467,73
539,47	3393,93
539,93	3751,00
540,39	3260,27
540,84	3474,00
541,30	3354,87
541,76	3279,13
542,22	3391,13
542,68	3385,73
543,14	3314,27
543,60	3552,67
544,06	3281,40
544,52	3513,13
544,97	3408,53
545,43	3332,40
545,89	3327,67
546,35	3410,27
546,81	3362,20
547,27	3374,33
547,73	3397,00
548,19	3377,67
548,64	3341,93
549,10	3337,00
549,56	3306,00
550,02	3507,60
550,48	3333,20
550,94	3277,80
551,39	3383,87
551,85	3352,13
552,31	3487,60
552,77	3376,53
553,23	3296,60
553,69	3391,07
554,14	3334,73
554,60	3295,33
555,06	3367,93
555,52	3362,80
555,98	3467,73
556,43	3360,60
556,89	3439,80
557,35	3271,40
557,81	3368,93
558,27	3514,53
558,72	3324,93
559,18	3338,60
559,64	3300,87
560,10	3303,27
560,56	3297,60
561,01	3348,60
561,47	3347,13
561,93	3330,73
562,39	3317,60
562,85	3307,00
563,30	3360,93
563,76	3423,33
564,22	3293,47
564,68	3362,13
565,13	3327,80
565,59	3342,40
566,05	3364,47
566,51	3431,47
566,96	3331,67
567,42	3304,13
567,88	3360,73
568,34	3425,13
568,79	3313,80
569,25	3336,87
569,71	3396,13
570,16	3355,07
570,62	3349,07
571,08	3399,07
571,54	3404,47
571,99	3335,07
572,45	3371,53
572,91	3383,27
573,36	3308,13
573,82	3315,87
574,28	3353,53
574,74	3427,80
575,19	3399,33
575,65	3268,07
576,11	3369,20
576,56	3236,07
577,02	3436,00
577,48	3330,20
577,93	3340,27
578,39	3271,07
578,85	3450,73
579,30	3377,60
579,76	3302,47
580,22	3372,47
580,67	3355,67
581,13	3349,27
581,59	3353,40
582,04	3360,60
582,50	3336,80
582,96	3282,40
583,41	3339,80
583,87	3358,53
584,33	3338,60
584,78	3384,07
585,24	3319,47
585,69	3542,27
586,15	3331,00
586,61	3340,93
587,06	3335,07
587,52	3339,60
587,98	3412,13
588,43	3273,80
588,89	3390,13
589,34	3332,93
589,80	3305,53
590,26	3369,73
590,71	3399,47
591,17	3313,47
591,62	3277,33
592,08	3440,40
592,54	3314,40
592,99	3370,13
593,45	3330,00
593,90	3402,60
594,36	3351,00
594,81	3333,53
595,27	3435,27
595,73	3325,27
596,18	3296,20
596,64	3452,80
597,09	3396,73
597,55	3443,87
598,00	3364,40
598,46	3273,73
598,92	3355,73
599,37	3439,73
599,83	3305,33
600,28	3391,40
600,74	3432,47
601,19	3380,27
601,65	3397,53
602,10	3265,33
602,56	3575,07
603,01	3318,07
603,47	3350,73
603,92	3261,60
604,38	3258,73
604,83	3389,00
605,29	3330,33
605,74	3387,93
606,20	3358,07
606,65	3260,07
607,11	3346,67
607,56	3325,07
608,02	3346,13
608,47	3397,93
608,93	3345,40
609,38	3531,20
609,84	3410,87
610,29	3335,80
610,75	3326,00
611,20	3353,27
611,66	3274,13
612,11	3485,80
612,57	3396,33
613,02	3345,93
613,48	3582,13
613,93	3278,33
614,39	3280,13
614,84	3271,27
615,30	3269,53
615,75	3339,07
616,20	3349,13
616,66	3284,73
617,11	3338,27
617,57	3333,60
618,02	3399,33
618,48	3312,67
618,93	3316,13
619,38	3336,00
619,84	3397,73
620,29	3323,00
620,75	3396,00
621,20	3425,67
621,66	3340,60
622,11	3408,47
622,56	3442,07
623,02	3417,47
623,47	3297,20
623,93	3302,67
624,38	3418,80
624,83	3275,20
625,29	3332,13
625,74	3367,27
626,20	3296,87
626,65	3336,93
627,10	3371,53
627,56	3281,73
628,01	3387,87
628,46	3401,73
628,92	3245,33
629,37	3340,40
629,82	3370,07
630,28	3307,33
630,73	3380,27
631,19	3349,93
631,64	3399,53
632,09	3380,13
632,55	3428,80
633,00	3305,73
633,45	3321,80
633,91	3300,60
634,36	3307,67
634,81	3282,67
635,27	3323,40
635,72	3305,67
636,17	3256,80
636,63	3353,73
637,08	3349,40
637,53	3287,67
637,99	3398,27
638,44	3402,80
638,89	3316,93
639,34	3337,87
639,80	3287,67
640,25	3245,20
640,70	3371,73
641,16	3407,87
641,61	3263,60
642,06	3305,67
642,51	3329,27
642,97	3259,93
643,42	3312,67
643,87	3391,67
644,33	3304,13
644,78	3273,80
645,23	3321,60
645,68	3282,13
646,14	3341,60
646,59	3343,80
647,04	3370,67
647,49	3397,33
647,95	3352,87
648,40	3358,33
648,85	3273,40
649,30	3421,87
649,76	3372,13
650,21	3674,47
650,66	3281,73
651,11	3293,07
651,57	3301,20
652,02	3356,47
652,47	3284,93
652,92	3343,60
653,37	3313,47
653,83	3300,20
654,28	3345,47
654,73	3361,67
655,18	3332,80
655,63	3267,07
656,09	3400,27
656,54	3295,07
656,99	3345,40
657,44	3385,07
657,89	3388,27
658,35	3298,73
658,80	3353,73
659,25	3281,93
659,70	3666,13
660,15	3316,47
660,60	3410,00
661,06	3330,33
661,51	3286,07
661,96	3323,27
662,41	3280,07
662,86	3247,67
663,31	3375,40
663,77	3316,87
664,22	3314,20
664,67	3323,40
665,12	3268,73
665,57	3351,07
666,02	3265,93
666,47	3354,40
666,93	3346,53
667,38	3535,73
667,83	3445,47
668,28	3287,13
668,73	3368,33
669,18	3293,00
669,63	3503,20
670,08	3226,13
670,53	3285,20
670,99	3422,53
671,44	3345,67
671,89	3462,67
672,34	3508,60
672,79	3338,13
673,24	3339,00
673,69	3426,20
674,14	3588,40
674,59	3356,40
675,04	3374,00
675,49	3242,87
675,95	3263,67
676,40	3351,80
676,85	3313,07
677,30	3319,93
677,75	3319,07
678,20	3539,33
678,65	3304,53
679,10	3328,27
679,55	3351,60
680,00	3299,13
680,45	3335,87
680,90	3340,27
681,35	3210,73
681,80	3225,53
682,25	3314,80
682,70	3335,07
683,15	3384,40
683,60	3364,93
684,05	3362,93
684,50	3414,80
684,95	3377,40
685,40	3350,40
685,85	3364,60
686,30	3314,20
686,75	3282,80
687,20	3336,20
687,65	3304,27
688,10	3343,40
688,55	3333,67
689,00	3543,20
689,45	3381,07
689,90	3239,80
690,35	3317,33
690,80	3333,53
691,25	3252,07
691,70	3335,67
692,15	3251,93
692,60	3335,07
693,05	3315,07
693,50	3367,27
693,95	3374,80
694,40	3338,73
694,85	3342,00
695,30	3679,53
695,75	3362,73
696,20	3344,80
696,65	3479,13
697,10	3324,00
697,55	3300,00
698,00	3364,00
698,45	3288,07
698,90	3390,27
699,34	3405,40
699,79	3294,53
700,24	3318,67
700,69	3388,07
701,14	3403,87
701,59	3630,53
702,04	3265,53
702,49	3459,73
702,94	3288,40
703,39	3307,20
703,84	3365,60
704,28	3323,73
704,73	3303,20
705,18	3425,73
705,63	3408,60
706,08	3404,47
706,53	3277,33
706,98	3384,80
707,43	3341,53
707,87	3320,93
708,32	3370,93
708,77	3398,73
709,22	3352,87
709,67	3302,47
710,12	3332,80
710,57	3341,13
711,01	3300,13
711,46	3378,47
711,91	3350,20
712,36	3343,53
712,81	3273,13
713,26	3486,47
713,71	3340,80
714,15	3343,80
714,60	3446,13
715,05	3395,87
715,50	3322,33
715,95	3345,47
716,39	3306,13
716,84	3318,47
717,29	3262,47
717,74	3255,80
718,19	3382,87
718,63	3474,47
719,08	3272,13
719,53	3264,47
719,98	3349,87
720,43	3326,40
720,87	3289,07
721,32	3356,33
721,77	3317,40
722,22	3361,00
722,67	3328,27
723,11	3266,07
723,56	3245,60
724,01	3341,20
724,46	3238,47
724,90	3375,13
725,35	3242,73
725,80	3320,87
726,25	3317,87
726,69	3341,00
727,14	3480,33
727,59	3282,13
728,04	3441,33
728,48	3385,13
728,93	3313,93
729,38	3425,87
729,83	3303,53
730,27	3400,53
730,72	3274,73
731,17	3345,00
731,61	3371,07
732,06	3352,27
732,51	3347,20
732,96	3287,07
733,40	3383,13
733,85	3352,40
734,30	3291,13
734,74	3390,27
735,19	3377,47
735,64	3336,27
736,09	3552,07
736,53	3282,13
736,98	3344,87
737,43	3403,00
737,87	3376,87
738,32	3337,00
738,77	3322,60
739,21	3340,13
739,66	3251,53
740,11	3416,07
740,55	3359,93
741,00	3279,67
741,45	3359,47
741,89	3389,13
742,34	3328,33
742,79	3339,20
743,23	3283,93
743,68	3288,87
744,12	3332,40
744,57	3418,27
745,02	3395,47
745,46	3379,13
745,91	3391,20
746,36	3442,87
746,80	3204,07
747,25	3279,93
747,69	3253,73
748,14	3363,33
748,59	3329,53
749,03	3312,80
749,48	3363,20
749,92	3554,67
750,37	3342,67
750,82	3320,47
751,26	3253,60
751,71	3302,40
752,15	3308,20
752,60	3320,13
753,05	3486,00
753,49	3293,00
753,94	3317,27
754,38	3257,13
754,83	3300,80
755,27	3274,40
755,72	3331,07
756,17	3342,47
756,61	3422,87
757,06	3320,33
757,50	3431,40
757,95	3334,93
758,39	3315,87
758,84	3318,87
759,28	3331,00
759,73	3272,73
760,17	3318,93
760,62	3369,07
761,07	3323,73
761,51	3394,27
761,96	3423,67
762,40	3312,80
762,85	3251,93
763,29	3308,53
763,74	3397,53
764,18	3324,93
764,63	3274,80
765,07	3289,27
765,52	3355,47
765,96	3268,40
766,41	3273,27
766,85	3294,60
767,30	3333,53
767,74	3336,67
768,19	3363,47
768,63	3378,67
769,07	3327,20
769,52	3493,47
769,96	3276,40
770,41	3324,67
770,85	3284,67
771,30	3275,67
771,74	3380,13
772,19	3351,53
772,63	3353,07
773,08	3234,07
773,52	3313,67
773,97	3314,53
774,41	3221,67
774,85	3340,07
775,30	3283,13
775,74	3343,27
776,19	3324,87
776,63	3280,80
777,08	3319,87
777,52	3318,80
777,96	3358,00
778,41	3376,80
778,85	3301,67
779,30	3336,40
779,74	3550,53
780,18	3445,27
780,63	3325,00
781,07	3402,07
781,52	3360,80
781,96	3278,40
782,40	3350,47
782,85	3265,00
783,29	3319,53
783,74	3374,47
784,18	3383,53
784,62	3326,13
785,07	3310,40
785,51	3320,93
785,95	3284,60
786,40	3368,60
786,84	3411,00
787,28	3414,20
787,73	3265,13
788,17	3286,00
788,61	3339,00
789,06	3291,87
789,50	3308,20
789,94	3290,40
790,39	3351,40
790,83	3282,27
791,27	3293,67
791,72	3412,67
792,16	3309,60
792,60	3348,53
793,05	3297,07
793,49	3661,13
793,93	3419,20
794,38	3332,80
794,82	3351,73
795,26	3337,60
795,71	3269,07
796,15	3354,40
796,59	3325,40
797,03	3348,87
797,48	3289,53
797,92	3263,67
798,36	3339,67
798,81	3412,40
799,25	3352,53
799,69	3275,67
800,13	3457,60
800,58	3356,40
801,02	3292,07
801,46	3367,40
801,90	3344,40
802,35	3276,40
802,79	3413,60
803,23	3473,80
803,67	3394,07
804,12	3351,33
804,56	3329,73
805,00	3299,20
805,44	3463,47
805,89	3497,33
806,33	3478,73
806,77	3399,80
807,21	3491,87
807,66	3320,07
808,10	3342,40
808,54	3285,27
808,98	3373,00
809,42	3345,53
809,87	3289,87
810,31	3269,93
810,75	3359,60
811,19	3433,87
811,63	3616,00
812,08	3311,40
812,52	3290,07
812,96	3372,87
813,40	3484,13
813,84	3399,20
814,28	3356,13
814,73	3411,60
815,17	3374,60
815,61	3358,53
816,05	3317,27
816,49	3287,07
816,93	3313,00
817,38	3394,13
817,82	3337,27
818,26	3416,73
818,70	3306,73
819,14	3388,13
819,58	3435,33
820,03	3318,27
820,47	3358,93
820,91	3307,60
821,35	3344,87
821,79	3288,47
822,23	3457,80
822,67	3288,53
823,11	3350,73
823,55	3356,00
824,00	3274,67
824,44	3349,27
824,88	3340,73
825,32	3361,87
825,76	3362,73
826,20	3289,47
826,64	3311,80
827,08	3222,67
827,52	3330,60
827,96	3387,33
828,41	3417,00
828,85	3297,07
829,29	3409,93
829,73	3371,87
830,17	3294,33
830,61	3455,73
831,05	3317,53
831,49	3518,93
831,93	3409,13
832,37	3383,00
832,81	3262,27
833,25	3340,13
833,69	3323,80
834,13	3435,47
834,57	3383,20
835,01	3334,33
835,45	3293,40
835,89	3416,33
836,33	3322,00
836,77	3361,53
837,22	3333,93
837,66	3410,80
838,10	3295,13
838,54	3313,80
838,98	3356,73
839,42	3330,20
839,86	3456,00
840,30	3497,47
840,74	3345,67
841,18	3436,67
841,62	3223,07
842,06	3300,27
842,50	3267,53
842,94	3309,27
843,37	3395,80
843,81	3346,47
844,25	3386,60
844,69	3332,27
845,13	3279,07
845,57	3385,20
846,01	3318,47
846,45	3402,00
846,89	3304,67
847,33	3286,87
847,77	3336,73
848,21	3295,27
848,65	3310,73
849,09	3300,00
849,53	3389,60
849,97	3431,07
850,41	3382,40
850,85	3319,93
851,29	3399,33
851,73	3288,53
852,16	3357,07
852,60	3415,47
853,04	3300,60
853,48	3300,73
853,92	3392,67
854,36	3263,27
854,80	3407,67
855,24	3260,87
855,68	3295,33
856,12	3416,60
856,55	3449,13
856,99	3339,67
857,43	3351,67
857,87	3345,33
858,31	3273,80
858,75	3439,00
859,19	3237,53
859,63	3273,07
860,06	3310,93
860,50	3323,73
860,94	3350,87
861,38	3375,93
861,82	3304,07
862,26	3335,40
862,70	3373,47
863,13	3304,13
863,57	3309,87
864,01	3387,60
864,45	3281,73
864,89	3341,13
865,33	3320,33
865,76	3262,07
866,20	3323,80
866,64	3236,93
867,08	3373,13
867,52	3274,47
867,96	3355,20
868,39	3336,80
868,83	3298,33
869,27	3363,47
869,71	3341,13
870,15	3452,07
870,58	3525,20
871,02	3275,73
871,46	3323,87
871,90	3340,93
872,34	3289,47
872,77	3344,53
873,21	3374,13
873,65	3337,20
874,09	3406,20
874,52	3388,93
874,96	3315,67
875,40	3275,47
875,84	3416,13
876,27	3236,07
876,71	3351,13
877,15	3335,33
877,59	3338,40
878,02	3336,00
878,46	3320,27
878,90	3364,13
879,34	3309,73
879,77	3477,53
880,21	3278,73
880,65	3273,67
881,09	3306,13
881,52	3342,20
881,96	3390,73
882,40	3328,33
882,83	3324,73
883,27	3309,87
883,71	3317,40
884,14	3274,27
884,58	3380,33
885,02	3340,80
885,46	3369,87
885,89	3399,67
886,33	3308,00
886,77	3295,93
887,20	3467,27
887,64	3271,00
888,08	3282,93
888,51	3318,60
888,95	3294,20
889,39	3602,73
889,82	3254,27
890,26	3388,20
890,70	3286,67
891,13	3364,40
891,57	3376,80
892,01	3256,60
892,44	3297,47
892,88	3313,73
893,31	3269,40
893,75	3315,20
894,19	3363,73
894,62	3316,33
895,06	3384,93
895,50	3309,27
895,93	3274,13
896,37	3340,27
896,80	3364,53
897,24	3272,07
897,68	3273,73
898,11	3288,27
898,55	3339,80
898,98	3418,33
899,42	3283,13
899,86	3281,40
900,29	3289,40
900,73	3397,27
901,16	3376,13
901,60	3309,40
902,04	3483,47
902,47	3484,40
902,91	3283,93
903,34	3316,60
903,78	3467,00
904,21	3285,07
904,65	3371,87
905,09	3306,80
905,52	3307,00
905,96	3275,60
906,39	3411,87
906,83	3340,07
907,26	3391,80
907,70	3359,13
908,13	3320,20
908,57	3379,07
909,00	3431,60
909,44	3314,20
909,87	3263,80
910,31	3361,20
910,74	3360,00
911,18	3326,67
911,62	3280,00
912,05	3320,53
912,49	3336,33
912,92	3307,87
913,36	3378,07
913,79	3365,53
914,22	3323,93
914,66	3268,40
915,09	3275,67
915,53	3317,13
915,96	3294,00
916,40	3397,93
916,83	3305,87
917,27	3405,40
917,70	3303,40
918,14	3387,73
918,57	3290,47
919,01	3320,87
919,44	3322,53
919,88	3376,40
920,31	3396,20
920,75	3338,93
921,18	3455,33
921,61	3361,80
922,05	3313,47
922,48	3269,13
922,92	3266,53
923,35	3349,27
923,79	3448,40
924,22	3372,60
924,65	3251,53
925,09	3376,07
925,52	3274,47
925,96	3388,27
926,39	3494,40
926,82	3313,60
927,26	3376,13
927,69	3252,07
928,13	3509,60
928,56	3334,80
928,99	3264,13
929,43	3400,13
929,86	3311,73
930,30	3351,13
930,73	3378,87
931,16	3294,40
931,60	3365,93
932,03	3237,40
932,46	3460,53
932,90	3405,20
933,33	3544,07
933,76	3322,80
934,20	3403,47
934,63	3399,73
935,07	3384,33
935,50	3354,67
935,93	3261,40
936,37	3323,93
936,80	3300,60
937,23	3357,60
937,67	3283,20
938,10	3385,47
938,53	3303,40
938,96	3302,40
939,40	3389,93
939,83	3271,53
940,26	3326,47
940,70	3406,00
941,13	3492,73
941,56	3296,87
942,00	3413,27
942,43	3287,80
942,86	3318,13
943,29	3388,53
943,73	3262,47
944,16	3248,13
944,59	3376,40
945,03	3369,53
945,46	3376,27
945,89	3328,20
946,32	3351,27
946,76	3351,13
947,19	3432,33
947,62	3324,47
948,05	3339,93
948,49	3376,60
948,92	3261,33
949,35	3263,20
949,78	3267,47
950,22	3544,07
950,65	3425,93
951,08	3317,67
951,51	3306,60
951,95	3366,47
952,38	3251,33
952,81	3397,67
953,24	3300,47
953,67	3469,40
954,11	3255,27
954,54	3297,73
954,97	3319,40
955,40	3307,53
955,83	3310,60
956,27	3371,80
956,70	3269,20
957,13	3374,27
957,56	3560,00
957,99	3261,60
958,43	3367,47
958,86	3348,47
959,29	3304,93
959,72	3295,73
960,15	3305,80
960,58	3224,67
961,02	3310,93
961,45	3383,00
961,88	3357,40
962,31	3409,53
962,74	3391,73
963,17	3285,33
963,61	3348,80
964,04	3307,80
964,47	3346,00
964,90	3335,27
965,33	3296,87
965,76	3404,73
966,19	3308,40
966,62	3310,40
967,06	3378,40
967,49	3281,27
967,92	3303,20
968,35	3426,47
968,78	3662,20
969,21	3378,40
969,64	3321,93
970,07	3360,47
970,50	3271,73
970,93	3312,73
971,37	3366,67
971,80	3303,67
972,23	3329,00
972,66	3261,73
973,09	3288,87
973,52	3307,87
973,95	3363,20
974,38	3318,00
974,81	3382,73
975,24	3360,00
975,67	3279,33
976,10	3298,33
976,53	3290,73
976,96	3354,87
977,39	3276,87
977,82	3378,93
978,26	3334,73
978,69	3315,60
979,12	3311,60
979,55	3319,07
979,98	3403,53
980,41	3368,73
980,84	3284,87
981,27	3362,53
981,70	3411,13
982,13	3320,67
982,56	3322,07
982,99	3295,60
983,42	3304,40
983,85	3289,60
984,28	3395,20
984,71	3391,40
985,14	3278,60
985,57	3224,47
986,00	3324,27
986,43	3373,27
986,86	3318,60
987,29	3285,67
987,72	3356,40
988,15	3330,60
988,57	3340,93
989,00	3320,93
989,43	3357,27
989,86	3331,33
990,29	3315,27
990,72	3354,47
991,15	3325,40
991,58	3346,47
992,01	3458,20
992,44	3310,20
992,87	3285,73
993,30	3324,13
993,73	3289,80
994,16	3304,27
994,59	3360,93
995,02	3374,40
995,44	3341,33
995,87	3342,47
996,30	3241,13
996,73	3258,33
997,16	3218,87
997,59	3418,20
998,02	3371,87
998,45	3293,53
998,88	3341,80
999,31	3271,60
999,73	3452,80
1000,16	3332,60
1000,59	3333,13
1001,02	3420,60
1001,45	3273,00
1001,88	3337,20
1002,31	3389,93
1002,74	3331,47
1003,16	3352,47
1003,59	3323,40
1004,02	3376,00
1004,45	3269,60
1004,88	3359,20
1005,31	3349,00
1005,73	3438,67
1006,16	3314,67
1006,59	3261,67
1007,02	3364,67
1007,45	3322,27
1007,88	3287,07
1008,30	3254,53
1008,73	3317,80
1009,16	3301,07
1009,59	3599,47
1010,02	3407,93
1010,44	3395,00
1010,87	3363,20
1011,30	3371,67
1011,73	3407,60
1012,16	3334,53
1012,58	3387,07
1013,01	3333,00
1013,44	3357,20
1013,87	3371,47
1014,30	3272,93
1014,72	3421,47
1015,15	3249,73
1015,58	3384,53
1016,01	3291,07
1016,43	3340,47
1016,86	3277,33
1017,29	3359,13
1017,72	3308,73
1018,14	5113,40
1018,57	3295,80
1019,00	3238,40
1019,43	3543,40
1019,85	3414,47
1020,28	3387,87
1020,71	3314,07
1021,14	3325,87
1021,56	3357,73
1021,99	3353,73
1022,42	3376,20
1022,84	3336,07
1023,27	3619,40
1023,70	3420,33
1024,13	3422,40
1024,55	3370,87
1024,98	3350,73
1025,41	3369,07
1025,83	3390,40
1026,26	3283,80
1026,69	3273,07
1027,11	3500,67
1027,54	3382,40
1027,97	3368,40
1028,39	3333,27
1028,82	3354,33
1029,25	3283,60
1029,67	3499,20
1030,10	3342,67
1030,53	3353,93
1030,95	3357,73
1031,38	3446,13
1031,81	3262,53
1032,23	3353,20
1032,66	3392,67
1033,09	3327,00
1033,51	3409,27
1033,94	3297,73
1034,37	3286,00
1034,79	3360,87
1035,22	3400,00
1035,64	3308,00
1036,07	3468,53
1036,50	3294,33
1036,92	3293,93
1037,35	3346,93
1037,77	3261,00
1038,20	3399,80
1038,63	3394,80
1039,05	3384,67
1039,48	3428,00
1039,90	3465,80
1040,33	3318,80
1040,76	3327,53
1041,18	3363,07
1041,61	3317,87
1042,03	3435,73
1042,46	3428,27
1042,88	3383,27
1043,31	3408,53
1043,74	3333,80
1044,16	3409,33
1044,59	3275,73
1045,01	3333,00
1045,44	3307,33
1045,86	3284,93
1046,29	3357,93
1046,71	3378,07
1047,14	3296,80
1047,56	3375,93
1047,99	3408,33
1048,42	3277,93
1048,84	3415,73
1049,27	3391,20
1049,69	3402,93
1050,12	3319,73
1050,54	3338,27
1050,97	3376,87
1051,39	3415,00
1051,82	3430,73
1052,24	3420,80
1052,67	3354,40
1053,09	3386,00
1053,52	3235,60
1053,94	3347,13
1054,37	3243,67
1054,79	3335,27
1055,22	3298,07
1055,64	3368,67
1056,06	3385,60
1056,49	3486,27
1056,91	3414,53
1057,34	3425,80
1057,76	3352,13
1058,19	3649,67
1058,61	3291,13
1059,04	3373,40
1059,46	3392,53
1059,89	3344,07
1060,31	3330,67
1060,73	3312,40
1061,16	3411,47
1061,58	3348,93
1062,01	3314,27
1062,43	3404,33
1062,86	3456,53
1063,28	3370,33
1063,70	3338,60
1064,13	3309,87
1064,55	3424,33
1064,98	3414,53
1065,40	3315,07
1065,82	3292,07
1066,25	3262,13
1066,67	3408,93
1067,10	3347,73
1067,52	3338,00
1067,94	3367,93
1068,37	3327,80
1068,79	3489,80
1069,21	3352,67
1069,64	3309,27
1070,06	3273,47
1070,48	3408,13
1070,91	3418,87
1071,33	3421,00
1071,76	3329,27
1072,18	3396,13
1072,60	3322,53
1073,03	3283,87
1073,45	3271,87
1073,87	3391,13
1074,30	3320,07
1074,72	3275,93
1075,14	3307,93
1075,57	3322,47
1075,99	3334,47
1076,41	3303,33
1076,84	3297,40
1077,26	3344,87
1077,68	3403,93
1078,10	3325,33
1078,53	3394,47
1078,95	3455,20
1079,37	3240,20
1079,80	3362,00
1080,22	3315,87
1080,64	3343,13
1081,06	3383,27
1081,49	3343,87
1081,91	3320,40
1082,33	3368,13
1082,76	3326,93
1083,18	3333,20
1083,60	3334,80
1084,02	3346,53
1084,45	3407,00
1084,87	3338,33
1085,29	3321,80
1085,71	3429,87
1086,14	3293,60
1086,56	3308,40
1086,98	3373,87
1087,40	3238,00
1087,83	3390,47
1088,25	5929,13
1088,67	3339,80
1089,09	3299,87
1089,51	3308,60
1089,94	3317,00
1090,36	3427,87
1090,78	3331,33
1091,20	3270,07
1091,62	3331,67
1092,05	3327,40
1092,47	3290,40
1092,89	3331,80
1093,31	3306,87
1093,73	3336,73
1094,16	3316,20
1094,58	3345,93
1095,00	3328,27
1095,42	3334,53
1095,84	3294,93
1096,26	3346,13
1096,69	3356,53
1097,11	3269,40
1097,53	3320,60
1097,95	3301,33
1098,37	3381,93
1098,79	3379,07
1099,22	3391,20
1099,64	3314,33
1100,06	3313,00
1100,48	3287,87
1100,90	3320,33
1101,32	3306,13
1101,74	3347,47
1102,16	3272,80
1102,59	3292,20
1103,01	3317,47
1103,43	3324,73
1103,85	3354,67
1104,27	3294,13
1104,69	3447,33
1105,11	3209,80
1105,53	3345,93
1105,95	3310,33
1106,38	3289,93
1106,80	3330,53
1107,22	3211,93
1107,64	3251,40
1108,06	3393,53
1108,48	3251,80
1108,90	3357,73
1109,32	3332,67
1109,74	3351,47
1110,16	3231,80
1110,58	3286,53
1111,00	3247,27
1111,42	3280,40
1111,84	3230,80
1112,26	3244,47
1112,68	3226,67
1113,11	3282,20
1113,53	3252,00
1113,95	3245,80
1114,37	3299,13
1114,79	3325,00
1115,21	3260,67
1115,63	3285,93
1116,05	3266,20
1116,47	3319,20
1116,89	3287,60
1117,31	3279,60
1117,73	3202,93
1118,15	2175,47
1118,57	2199,07
1118,99	2197,80
1119,41	2198,27
>>>>>End Processed Spectral Data<<<<<
