SpectraSuite Data File
++++++++++++++++++++++++++++++++++++
Date: Thu Feb 25 15:11:16 EET 2016
User: OO Maya
Dark Spectrum Present: No
Reference Spectrum Present: No
Number of Sampled Component Spectra: 1
Spectrometers: MAYP11278
Integration Time (usec): 4000000 (MAYP11278)
Spectra Averaged: 10 (MAYP11278)
Boxcar Smoothing: 0 (MAYP11278)
Correct for Electrical Dark: No (MAYP11278)
Strobe/Lamp Enabled: No (MAYP11278)
Correct for Detector Non-linearity: No (MAYP11278)
Correct for Stray Light: No (MAYP11278)
Number of Pixels in Processed Spectrum: 2068
>>>>>Begin Processed Spectral Data<<<<<
187,82	2303,00
188,30	2220,20
188,78	2190,50
189,26	2195,20
189,73	7881,30
190,21	8349,90
190,69	8440,20
191,17	8493,70
191,64	8845,80
192,12	8477,40
192,60	8342,20
193,07	8057,70
193,55	8436,80
194,03	8376,10
194,51	8564,80
194,98	8328,40
195,46	8838,00
195,94	8321,40
196,42	8441,20
196,89	9507,00
197,37	8429,10
197,85	8142,40
198,32	8342,50
198,80	8185,20
199,28	8620,00
199,76	8764,90
200,23	8336,80
200,71	8409,80
201,19	8772,80
201,66	8739,70
202,14	8717,50
202,62	8123,20
203,09	8643,30
203,57	8240,00
204,05	8883,40
204,53	9035,20
205,00	8338,00
205,48	8327,40
205,96	9102,00
206,43	8495,90
206,91	8666,40
207,39	9616,50
207,86	8671,20
208,34	8794,70
208,82	8479,10
209,29	8908,40
209,77	8797,80
210,25	8564,00
210,72	8538,90
211,20	8758,70
211,68	8649,00
212,15	8381,30
212,63	9290,80
213,11	8802,30
213,58	8489,70
214,06	9343,70
214,53	8726,70
215,01	9201,20
215,49	8776,00
215,96	8855,80
216,44	8876,20
216,92	8795,20
217,39	8408,90
217,87	8597,90
218,35	9088,30
218,82	8167,70
219,30	8376,10
219,77	8444,30
220,25	8617,50
220,73	9570,90
221,20	8391,20
221,68	8973,80
222,15	8376,50
222,63	8950,30
223,11	8468,50
223,58	8959,60
224,06	8591,10
224,53	8493,00
225,01	8286,10
225,49	8590,30
225,96	8400,00
226,44	8697,80
226,91	9052,60
227,39	8571,30
227,87	9107,00
228,34	8942,90
228,82	8862,20
229,29	8567,20
229,77	8611,00
230,24	8480,30
230,72	8929,50
231,20	8951,70
231,67	8724,90
232,15	8794,50
232,62	8341,10
233,10	8718,20
233,57	8792,30
234,05	10121,60
234,53	8810,80
235,00	8482,40
235,48	8427,30
235,95	8274,10
236,43	8967,90
236,90	9553,60
237,38	8473,00
237,85	8752,90
238,33	8739,60
238,80	8772,80
239,28	8567,80
239,75	8233,40
240,23	8873,00
240,71	9186,40
241,18	8770,20
241,66	8622,00
242,13	9035,30
242,61	9099,50
243,08	8271,80
243,56	8374,80
244,03	8987,00
244,51	9209,50
244,98	8613,40
245,46	9191,20
245,93	28614,30
246,41	8009,00
246,88	8770,10
247,36	8654,60
247,83	8777,80
248,31	8798,60
248,78	8139,40
249,26	8728,00
249,73	9004,50
250,21	8793,80
250,68	9267,40
251,16	8741,90
251,63	9484,50
252,10	9192,20
252,58	8508,20
253,05	9159,00
253,53	8741,90
254,00	8594,50
254,48	8785,10
254,95	8813,50
255,43	9049,40
255,90	8480,40
256,38	8815,80
256,85	8957,80
257,33	9066,80
257,80	9914,10
258,27	8753,20
258,75	8530,10
259,22	8841,80
259,70	9007,10
260,17	9411,50
260,65	8725,70
261,12	8553,80
261,59	9151,70
262,07	8490,40
262,54	8865,30
263,02	8695,90
263,49	8282,30
263,97	8986,10
264,44	9161,00
264,91	8580,40
265,39	8813,80
265,86	8931,90
266,34	8993,90
266,81	8606,80
267,28	8680,70
267,76	8842,60
268,23	8911,90
268,71	8200,70
269,18	8417,60
269,65	8545,10
270,13	8973,10
270,60	9167,60
271,08	8594,80
271,55	8806,20
272,02	8282,20
272,50	8349,00
272,97	8120,70
273,44	8749,10
273,92	10138,50
274,39	9006,00
274,87	9108,90
275,34	8542,20
275,81	8631,40
276,29	8960,00
276,76	9083,60
277,23	8328,30
277,71	8680,30
278,18	8347,40
278,65	10395,40
279,13	8596,90
279,60	8564,40
280,07	10280,70
280,55	9096,90
281,02	10014,50
281,50	8471,50
281,97	9201,30
282,44	8633,10
282,91	8672,10
283,39	8914,70
283,86	8415,00
284,33	8359,80
284,81	8991,40
285,28	8708,90
285,75	8858,20
286,23	8877,30
286,70	8227,10
287,17	8924,60
287,65	9453,40
288,12	8629,30
288,59	8985,50
289,07	8075,60
289,54	9344,10
290,01	8463,10
290,48	8879,80
290,96	8532,00
291,43	8945,30
291,90	9631,10
292,38	8516,00
292,85	9168,80
293,32	8547,70
293,79	8969,60
294,27	8913,30
294,74	8629,80
295,21	8763,10
295,69	8867,00
296,16	9523,80
296,63	9398,10
297,10	9093,80
297,58	8913,60
298,05	8902,10
298,52	8592,70
298,99	9440,90
299,47	8632,90
299,94	8928,50
300,41	8567,60
300,88	9137,90
301,36	9127,80
301,83	9041,90
302,30	8409,20
302,77	9025,20
303,25	9046,00
303,72	8441,50
304,19	8588,80
304,66	8466,50
305,13	8846,20
305,61	8913,70
306,08	8900,50
306,55	8992,60
307,02	8618,50
307,49	8640,60
307,97	8864,30
308,44	8636,00
308,91	9119,30
309,38	9156,40
309,86	8925,60
310,33	8764,80
310,80	8964,50
311,27	8551,30
311,74	9205,00
312,21	8762,50
312,69	9502,50
313,16	8528,90
313,63	8650,70
314,10	8853,20
314,57	8578,00
315,05	8540,60
315,52	9128,40
315,99	9122,70
316,46	8863,00
316,93	9009,10
317,40	8926,30
317,88	10002,50
318,35	8789,70
318,82	8733,60
319,29	8299,70
319,76	8935,40
320,23	9552,20
320,70	9121,20
321,18	8703,30
321,65	8159,60
322,12	8385,70
322,59	9504,90
323,06	8679,10
323,53	9853,40
324,00	8354,40
324,48	8863,50
324,95	8672,90
325,42	8612,90
325,89	8680,00
326,36	8630,40
326,83	8982,90
327,30	8986,60
327,77	8967,70
328,24	8831,70
328,72	8695,80
329,19	8592,00
329,66	8672,80
330,13	8487,50
330,60	9155,90
331,07	8968,00
331,54	9496,90
332,01	8505,70
332,48	9589,30
332,95	9093,40
333,43	9019,20
333,90	9329,70
334,37	8848,50
334,84	9012,80
335,31	10368,80
335,78	8405,50
336,25	8740,00
336,72	8696,40
337,19	8891,10
337,66	8646,50
338,13	8650,00
338,60	9423,20
339,07	9132,70
339,54	8449,00
340,01	8485,10
340,49	8415,90
340,96	9001,60
341,43	9261,80
341,90	8566,20
342,37	8903,90
342,84	9088,70
343,31	8905,80
343,78	8617,40
344,25	8717,90
344,72	8548,80
345,19	8847,50
345,66	8986,30
346,13	8658,60
346,60	8523,50
347,07	9456,40
347,54	8598,90
348,01	9239,20
348,48	8849,00
348,95	8288,60
349,42	8841,00
349,89	9111,70
350,36	8785,90
350,83	8490,80
351,30	8841,50
351,77	9561,50
352,24	8882,10
352,71	8759,70
353,18	8836,50
353,65	9036,80
354,12	8909,40
354,59	9020,70
355,06	8897,10
355,53	9475,30
356,00	8568,90
356,47	9448,10
356,94	8468,50
357,41	10061,40
357,88	9056,30
358,35	8363,10
358,82	8492,10
359,28	8608,50
359,75	8571,30
360,22	9157,00
360,69	9408,30
361,16	8648,30
361,63	8741,50
362,10	8740,50
362,57	8695,10
363,04	8815,00
363,51	9720,10
363,98	9014,20
364,45	8517,90
364,92	9000,60
365,39	8598,70
365,86	8391,20
366,32	8863,10
366,79	8778,20
367,26	14831,20
367,73	8056,30
368,20	8439,60
368,67	9104,60
369,14	8374,20
369,61	9129,10
370,08	8889,30
370,55	8632,90
371,02	12926,80
371,48	8912,10
371,95	8542,20
372,42	8258,20
372,89	8525,20
373,36	8783,80
373,83	8306,80
374,30	8479,90
374,77	8826,00
375,23	8223,70
375,70	9356,50
376,17	8630,10
376,64	8343,90
377,11	8375,50
377,58	8931,80
378,05	8781,10
378,51	8713,30
378,98	8763,90
379,45	8711,50
379,92	8989,40
380,39	9398,00
380,86	8761,00
381,33	9429,60
381,79	9358,60
382,26	8275,00
382,73	8886,70
383,20	8668,80
383,67	9098,90
384,14	8792,90
384,60	10988,30
385,07	8793,40
385,54	8593,60
386,01	8674,00
386,48	9525,70
386,94	8419,50
387,41	8355,20
387,88	9109,20
388,35	8905,90
388,82	9258,10
389,28	8531,20
389,75	9016,30
390,22	8854,40
390,69	9008,00
391,16	8893,60
391,62	8898,90
392,09	8987,60
392,56	8798,10
393,03	8816,10
393,50	10024,10
393,96	9013,50
394,43	9546,40
394,90	8856,00
395,37	9597,60
395,83	11357,60
396,30	8973,70
396,77	9816,20
397,24	10067,00
397,70	9466,10
398,17	10025,30
398,64	9955,10
399,11	9929,30
399,57	10808,70
400,04	10135,70
400,51	10622,20
400,98	10583,60
401,44	11082,60
401,91	11147,40
402,38	11182,20
402,84	11042,30
403,31	12075,50
403,78	11520,70
404,25	12399,90
404,71	12713,40
405,18	12623,80
405,65	11992,60
406,12	12654,40
406,58	12578,20
407,05	13292,00
407,52	12553,30
407,98	12817,50
408,45	13125,20
408,92	12786,70
409,38	13601,50
409,85	12861,80
410,32	13758,30
410,78	12973,20
411,25	13840,80
411,72	13305,80
412,18	12911,50
412,65	13837,80
413,12	13648,70
413,59	13976,30
414,05	14119,90
414,52	14503,90
414,98	13793,70
415,45	14531,40
415,92	14016,90
416,38	14019,70
416,85	14843,90
417,32	14142,20
417,78	14031,40
418,25	14140,50
418,72	14212,30
419,18	14566,70
419,65	14133,90
420,12	14802,30
420,58	14290,00
421,05	14827,70
421,51	14865,20
421,98	15384,30
422,45	14788,10
422,91	14716,70
423,38	14877,90
423,85	14970,70
424,31	14637,30
424,78	15038,20
425,24	14734,60
425,71	15158,20
426,18	14249,30
426,64	14926,30
427,11	14716,30
427,57	14926,90
428,04	14299,10
428,51	15176,20
428,97	15238,90
429,44	15266,80
429,90	15824,70
430,37	17004,80
430,83	15027,30
431,30	14952,90
431,77	15389,90
432,23	14828,90
432,70	14522,80
433,16	14552,90
433,63	14924,70
434,09	15244,70
434,56	15211,10
435,03	14278,00
435,49	15108,90
435,96	14923,50
436,42	14257,80
436,89	15244,30
437,35	14773,80
437,82	14732,30
438,28	14497,00
438,75	14634,50
439,21	16388,20
439,68	14871,40
440,14	15199,30
440,61	15502,20
441,07	15024,90
441,54	15516,60
442,00	16753,70
442,47	15113,10
442,94	15529,90
443,40	15687,60
443,87	15237,50
444,33	16198,70
444,80	15553,90
445,26	15341,50
445,73	15304,10
446,19	15397,40
446,65	15293,10
447,12	15335,90
447,58	14935,20
448,05	14784,50
448,51	15236,20
448,98	15307,50
449,44	15088,20
449,91	14731,90
450,37	14621,70
450,84	14602,60
451,30	14862,10
451,77	15041,60
452,23	14445,60
452,70	15003,10
453,16	14441,40
453,62	14203,60
454,09	14303,40
454,55	14558,30
455,02	14300,60
455,48	14535,70
455,95	14832,50
456,41	14106,70
456,88	14838,20
457,34	14478,00
457,80	14526,40
458,27	14270,40
458,73	14720,60
459,20	14631,30
459,66	15540,20
460,13	14508,30
460,59	14193,80
461,05	14992,00
461,52	14647,50
461,98	13702,00
462,45	13346,10
462,91	14395,80
463,37	13859,60
463,84	14381,20
464,30	14398,90
464,76	14198,10
465,23	14641,10
465,69	15116,00
466,16	14696,00
466,62	14495,70
467,08	14116,40
467,55	13750,80
468,01	13906,60
468,48	13839,30
468,94	13443,50
469,40	13013,10
469,87	13418,60
470,33	13311,50
470,79	12989,30
471,26	13065,10
471,72	12871,50
472,18	13105,00
472,65	13317,00
473,11	14055,40
473,57	13514,90
474,04	13310,80
474,50	13635,90
474,96	13376,50
475,43	13975,00
475,89	13785,40
476,35	13686,30
476,82	13476,20
477,28	13573,00
477,74	14168,00
478,21	13806,60
478,67	14166,80
479,13	13381,20
479,59	14577,30
480,06	14052,90
480,52	14125,80
480,98	13699,00
481,45	13914,70
481,91	14068,70
482,37	13417,70
482,84	13537,80
483,30	13184,00
483,76	13837,50
484,22	14996,70
484,69	15693,50
485,15	18881,80
485,61	21299,20
486,07	23865,20
486,54	20231,30
487,00	15802,20
487,46	14222,40
487,92	13533,10
488,39	13294,00
488,85	13463,70
489,31	13329,70
489,77	13617,60
490,24	12754,00
490,70	13185,40
491,16	12714,10
491,62	12932,50
492,09	12604,00
492,55	13539,00
493,01	13250,60
493,47	13195,20
493,94	13095,00
494,40	13098,00
494,86	12937,10
495,32	12810,30
495,78	13344,40
496,25	13383,80
496,71	13475,70
497,17	13844,20
497,63	13255,40
498,09	12551,20
498,56	13012,80
499,02	12925,30
499,48	14237,40
499,94	13283,20
500,40	12923,50
500,87	13091,60
501,33	13034,30
501,79	13692,30
502,25	13283,00
502,71	16005,60
503,17	13200,70
503,64	13387,20
504,10	12862,80
504,56	13065,70
505,02	13049,20
505,48	12614,20
505,94	13014,50
506,40	13306,80
506,87	12863,10
507,33	12928,20
507,79	12873,40
508,25	12620,20
508,71	12437,50
509,17	12190,50
509,63	12366,60
510,10	12606,00
510,56	12340,40
511,02	13041,40
511,48	12902,30
511,94	11985,70
512,40	11716,60
512,86	12090,90
513,32	12495,00
513,78	11623,70
514,25	12556,60
514,71	12881,30
515,17	11387,20
515,63	12151,90
516,09	12600,20
516,55	12542,50
517,01	13186,80
517,47	12151,20
517,93	11851,20
518,39	13431,10
518,85	11987,00
519,32	11841,40
519,78	11454,70
520,24	11382,20
520,70	11784,50
521,16	11937,60
521,62	12003,40
522,08	11664,20
522,54	11312,40
523,00	12482,40
523,46	12148,40
523,92	11712,60
524,38	12758,60
524,84	11970,00
525,30	11918,90
525,76	12209,50
526,22	11798,30
526,68	11735,90
527,14	11569,90
527,60	11598,00
528,06	12075,10
528,52	12194,00
528,98	11974,70
529,44	11695,10
529,90	12112,50
530,36	12032,30
530,82	11383,70
531,28	12260,30
531,74	11873,60
532,20	11855,50
532,66	12056,60
533,12	12403,20
533,58	12298,40
534,04	12003,60
534,50	12336,00
534,96	12208,70
535,42	12425,70
535,88	12002,50
536,34	12194,70
536,80	11527,00
537,26	12231,40
537,72	12177,90
538,18	12381,00
538,64	13169,50
539,10	12746,80
539,56	14692,30
540,02	11850,00
540,48	13015,40
540,94	12502,00
541,40	12056,00
541,86	12687,90
542,32	12581,60
542,78	12314,50
543,24	13672,20
543,69	12193,70
544,15	13628,60
544,61	13034,60
545,07	12556,20
545,53	12288,70
545,99	12570,40
546,45	12298,50
546,91	12636,40
547,37	12989,30
547,83	13214,70
548,29	12984,70
548,74	12473,60
549,20	11889,10
549,66	13086,50
550,12	12029,30
550,58	11782,10
551,04	12199,60
551,50	12321,00
551,96	13546,80
552,42	13015,50
552,87	12326,70
553,33	12660,60
553,79	12327,00
554,25	11877,70
554,71	12414,20
555,17	12533,70
555,63	13533,00
556,08	12823,90
556,54	13052,90
557,00	11677,60
557,46	12436,40
557,92	13193,00
558,38	11975,40
558,83	11925,40
559,29	11774,60
559,75	12208,00
560,21	12629,70
560,67	13275,90
561,13	13159,40
561,58	12934,00
562,04	12476,60
562,50	12347,80
562,96	12869,80
563,42	13461,20
563,87	12856,10
564,33	13377,20
564,79	13229,30
565,25	13211,20
565,71	13430,70
566,16	14043,20
566,62	13624,00
567,08	14132,90
567,54	14959,30
568,00	15635,40
568,45	15744,80
568,91	16842,50
569,37	18535,60
569,83	19618,30
570,28	20097,70
570,74	20963,10
571,20	21762,00
571,66	21805,10
572,11	21547,60
572,57	20233,70
573,03	20897,10
573,49	23316,50
573,94	24814,20
574,40	26182,20
574,86	25516,40
575,32	23090,00
575,77	21952,90
576,23	22285,60
576,69	25919,20
577,15	27019,40
577,60	30138,30
578,06	30929,30
578,52	27831,70
578,97	23577,40
579,43	23011,70
579,89	24513,50
580,34	25721,20
580,80	27677,00
581,26	33655,20
581,72	37045,70
582,17	33811,00
582,63	28575,30
583,09	24143,10
583,54	21847,40
584,00	22043,50
584,46	24564,10
584,91	27477,10
585,37	30617,70
585,83	27435,60
586,28	24236,70
586,74	23934,60
587,20	26236,30
587,65	26665,10
588,11	23267,60
588,57	22628,50
589,02	20848,70
589,48	19738,70
589,94	20625,10
590,39	20309,50
590,85	18523,80
591,30	17763,50
591,76	19359,90
592,22	19695,80
592,67	24347,90
593,13	26506,60
593,59	25032,40
594,04	21854,00
594,50	19745,30
594,95	21443,90
595,41	21408,80
595,87	19811,00
596,32	19061,70
596,78	18332,30
597,23	19695,50
597,69	19346,30
598,15	18415,80
598,60	21349,60
599,06	24644,80
599,51	22546,40
599,97	22818,40
600,43	22882,00
600,88	21818,20
601,34	21462,60
601,79	19423,80
602,25	21284,80
602,70	20584,80
603,16	21641,30
603,61	21600,10
604,07	19935,00
604,53	19664,70
604,98	18749,80
605,44	20366,50
605,89	21993,60
606,35	20410,30
606,80	19520,10
607,26	20080,40
607,71	20421,40
608,17	19352,20
608,62	18906,00
609,08	19790,80
609,53	18504,10
609,99	20061,10
610,44	19821,00
610,90	18377,60
611,35	17631,80
611,81	19035,20
612,26	17772,40
612,72	17613,10
613,17	19236,50
613,63	17138,30
614,08	17113,00
614,54	17439,90
614,99	17986,00
615,45	18736,00
615,90	18073,20
616,36	16502,20
616,81	16616,80
617,27	16829,70
617,72	17657,00
618,18	16924,90
618,63	15688,30
619,09	14855,30
619,54	15304,50
619,99	15776,50
620,45	16190,30
620,90	14351,60
621,36	13273,20
621,81	15091,60
622,27	15746,40
622,72	15501,40
623,18	15686,60
623,63	15428,00
624,08	15498,00
624,54	15412,30
624,99	15534,80
625,45	14841,70
625,90	13979,20
626,35	13795,60
626,81	13960,20
627,26	13869,70
627,72	14378,10
628,17	13316,70
628,62	12006,80
629,08	13341,20
629,53	13765,00
629,99	12985,10
630,44	13388,10
630,89	12991,20
631,35	12913,90
631,80	12945,10
632,26	12890,30
632,71	11808,20
633,16	11803,70
633,62	11806,90
634,07	12122,30
634,52	11626,50
634,98	11616,50
635,43	11564,40
635,88	11488,70
636,34	12551,20
636,79	12489,80
637,24	11590,90
637,70	12002,40
638,15	11969,00
638,60	11862,80
639,06	12160,00
639,51	11395,90
639,96	11034,60
640,42	11692,50
640,87	11997,20
641,32	10934,90
641,78	11222,70
642,23	11197,90
642,68	10611,20
643,14	11012,90
643,59	11617,00
644,04	10894,60
644,49	10756,40
644,95	11000,60
645,40	10817,00
645,85	11118,50
646,31	11039,40
646,76	11052,90
647,21	11156,40
647,66	11091,70
648,12	11935,10
648,57	12045,50
649,02	12917,50
649,47	12587,00
649,93	13649,40
650,38	10999,20
650,83	10928,10
651,28	11221,80
651,74	11903,30
652,19	12125,50
652,64	12664,60
653,09	12564,70
653,55	12797,30
654,00	13273,50
654,45	14369,90
654,90	18152,70
655,35	37978,40
655,81	64000,00
656,26	64000,00
656,71	64000,00
657,16	47227,00
657,62	24067,40
658,07	17598,00
658,52	15179,40
658,97	13087,20
659,42	14334,30
659,88	11497,00
660,33	11814,80
660,78	10958,70
661,23	10560,80
661,68	10842,10
662,13	10643,60
662,59	10392,00
663,04	11003,90
663,49	10532,10
663,94	10599,20
664,39	10924,30
664,84	10693,70
665,30	11252,20
665,75	10819,60
666,20	10987,50
666,65	10653,00
667,10	11643,70
667,55	11071,70
668,00	10391,20
668,46	10796,40
668,91	10278,50
669,36	11653,90
669,81	10161,90
670,26	10639,10
670,71	11327,30
671,16	10861,80
671,61	12553,50
672,06	14098,70
672,52	13237,80
672,97	12628,40
673,42	11965,20
673,87	12514,80
674,32	11335,40
674,77	11221,20
675,22	10287,00
675,67	10850,80
676,12	11330,20
676,57	11051,90
677,02	10947,90
677,47	11007,40
677,93	13301,10
678,38	11979,60
678,83	11934,80
679,28	12279,00
679,73	12683,20
680,18	12838,30
680,63	12278,50
681,08	11058,80
681,53	11479,10
681,98	12203,70
682,43	11697,50
682,88	11346,20
683,33	11587,10
683,78	12495,10
684,23	13117,50
684,68	13134,10
685,13	13368,30
685,58	13958,70
686,03	13648,60
686,48	12576,50
686,93	12611,40
687,38	12756,30
687,83	12865,80
688,28	11907,70
688,73	12816,30
689,18	12075,90
689,63	11666,20
690,08	11936,30
690,53	11607,60
690,98	11689,90
691,43	13127,60
691,88	12549,80
692,33	12562,90
692,78	12287,70
693,23	12928,90
693,68	12797,50
694,13	11964,10
694,58	11466,80
695,03	13675,00
695,48	12407,90
695,93	11871,90
696,38	12024,00
696,83	11899,20
697,28	13800,70
697,72	14015,10
698,17	12522,50
698,62	12747,20
699,07	12646,70
699,52	11805,90
699,97	11623,50
700,42	11631,10
700,87	11742,80
701,32	13143,70
701,77	10935,50
702,22	12536,50
702,67	11956,20
703,11	12125,70
703,56	11934,00
704,01	11546,30
704,46	11419,80
704,91	12096,40
705,36	11638,90
705,81	11449,50
706,26	11119,90
706,70	13118,30
707,15	14030,10
707,60	14404,10
708,05	14011,40
708,50	13638,50
708,95	12872,60
709,40	12164,70
709,84	12281,10
710,29	12640,30
710,74	12756,50
711,19	13074,30
711,64	12440,00
712,09	12149,30
712,53	11562,20
712,98	13047,90
713,43	12516,20
713,88	13314,10
714,33	14284,50
714,78	13749,70
715,22	12773,10
715,67	12645,90
716,12	11882,30
716,57	11447,20
717,02	11046,20
717,46	10946,80
717,91	11834,70
718,36	13050,20
718,81	11970,50
719,26	12083,40
719,70	12551,50
720,15	12130,80
720,60	11827,70
721,05	12500,70
721,49	12217,20
721,94	12544,20
722,39	12180,20
722,84	11501,50
723,28	11362,10
723,73	12055,60
724,18	11631,60
724,63	12187,20
725,07	11643,50
725,52	12890,00
725,97	13003,30
726,42	12937,90
726,86	13584,20
727,31	12080,80
727,76	12888,40
728,21	12816,60
728,65	12799,60
729,10	13344,90
729,55	12831,00
729,99	13921,70
730,44	13274,80
730,89	14477,60
731,33	15157,00
731,78	14976,60
732,23	14257,10
732,68	13518,80
733,12	14531,60
733,57	14633,20
734,02	14933,40
734,46	16557,60
734,91	15697,60
735,36	14422,60
735,80	15386,80
736,25	14231,20
736,70	14555,40
737,14	15087,30
737,59	14494,30
738,04	13426,50
738,48	12940,00
738,93	13886,10
739,37	14779,00
739,82	15593,70
740,27	13940,90
740,71	12339,00
741,16	12395,40
741,61	12201,60
742,05	12110,10
742,50	12748,80
742,94	12734,90
743,39	12211,20
743,84	12017,30
744,28	12434,60
744,73	12683,90
745,18	12767,70
745,62	12897,00
746,07	13084,60
746,51	11498,30
746,96	11826,50
747,40	12114,80
747,85	12625,90
748,30	11803,50
748,74	11626,30
749,19	12715,80
749,63	14815,00
750,08	14526,60
750,52	14518,40
750,97	13532,10
751,42	13668,30
751,86	13808,60
752,31	13778,20
752,75	14040,70
753,20	12645,20
753,64	13595,70
754,09	13696,30
754,53	13778,10
754,98	13390,20
755,42	14373,30
755,87	14862,30
756,31	15592,50
756,76	15766,10
757,20	17193,70
757,65	17913,20
758,09	17652,70
758,54	16161,80
758,98	14965,00
759,43	15660,70
759,87	17324,70
760,32	18201,40
760,76	17892,00
761,21	17490,50
761,65	16163,50
762,10	14087,20
762,54	13197,50
762,99	13887,40
763,43	15141,20
763,88	15169,30
764,32	15851,00
764,77	17482,10
765,21	18259,70
765,66	16557,30
766,10	14870,80
766,54	13687,10
766,99	13007,00
767,43	12753,90
767,88	13331,90
768,32	14686,30
768,77	15543,30
769,21	16392,30
769,66	14303,40
770,10	14069,60
770,54	14787,80
770,99	15458,40
771,43	16153,30
771,88	14845,70
772,32	13867,20
772,76	13168,70
773,21	13723,90
773,65	13345,70
774,10	12548,40
774,54	12729,90
774,98	12303,50
775,43	12468,40
775,87	12190,60
776,31	11670,80
776,76	11994,80
777,20	12233,70
777,65	12536,30
778,09	12815,60
778,53	13063,40
778,98	13930,10
779,42	15455,80
779,86	14127,40
780,31	12857,70
780,75	13677,30
781,19	15312,20
781,64	15652,80
782,08	15614,00
782,52	14140,40
782,97	13825,70
783,41	14543,80
783,85	14554,20
784,30	13648,70
784,74	12589,50
785,18	12877,50
785,63	13296,50
786,07	14142,90
786,51	13900,60
786,95	14036,70
787,40	13940,00
787,84	14621,50
788,28	14981,10
788,73	15854,90
789,17	14002,90
789,61	13248,10
790,05	12559,90
790,50	11882,50
790,94	11906,60
791,38	12796,90
791,82	12141,20
792,27	12297,60
792,71	11880,40
793,15	14276,10
793,59	13886,70
794,04	15349,00
794,48	16121,10
794,92	15837,70
795,36	14085,60
795,81	13628,90
796,25	11923,70
796,69	11247,90
797,13	11515,10
797,57	12148,20
798,02	12770,50
798,46	12975,50
798,90	12430,50
799,34	11934,00
799,79	12864,90
800,23	11967,70
800,67	11335,70
801,11	11745,00
801,55	11501,70
801,99	10899,30
802,44	11618,30
802,88	12180,20
803,32	12396,20
803,76	12195,50
804,20	11898,00
804,64	11492,70
805,09	12543,40
805,53	13382,10
805,97	14293,00
806,41	14474,50
806,85	15083,50
807,29	13099,00
807,74	12590,60
808,18	12328,10
808,62	13178,10
809,06	12708,50
809,50	12133,10
809,94	11490,70
810,38	12010,50
810,82	12544,00
811,27	13387,70
811,71	11321,50
812,15	10915,10
812,59	11142,10
813,03	12250,50
813,47	12846,90
813,91	13258,40
814,35	13571,50
814,79	12353,00
815,23	11315,10
815,67	10707,00
816,12	10599,70
816,56	11320,10
817,00	11964,20
817,44	11996,20
817,88	12155,90
818,32	11060,50
818,76	11322,80
819,20	11404,50
819,64	10885,80
820,08	11862,60
820,52	12045,20
820,96	12812,20
821,40	12153,00
821,84	12383,10
822,28	10719,90
822,72	11046,20
823,16	11123,70
823,60	10668,60
824,04	11110,60
824,48	10936,90
824,92	11440,90
825,36	11960,30
825,80	11393,70
826,24	11813,00
826,68	10830,40
827,12	11693,50
827,56	12091,40
828,00	12209,30
828,44	11248,20
828,88	11837,90
829,32	11664,10
829,76	11419,60
830,20	11544,10
830,64	10415,00
831,08	11203,50
831,52	10438,20
831,96	10420,10
832,40	10115,60
832,84	10864,80
833,28	11214,40
833,72	12156,10
834,16	11576,80
834,60	11264,50
835,04	10883,80
835,48	11234,30
835,91	10568,60
836,35	10468,20
836,79	10055,80
837,23	10313,10
837,67	9729,20
838,11	9771,50
838,55	10336,60
838,99	10418,40
839,43	11367,30
839,87	11751,50
840,30	10991,50
840,74	10956,50
841,18	9787,80
841,62	9856,80
842,06	9564,90
842,50	9776,00
842,94	10202,50
843,38	10036,70
843,81	10304,30
844,25	10034,40
844,69	9741,70
845,13	10291,10
845,57	9840,60
846,01	10367,70
846,45	9730,70
846,88	9670,10
847,32	10305,40
847,76	9987,50
848,20	10214,20
848,64	9869,70
849,08	10156,40
849,51	10405,60
849,95	10271,10
850,39	9761,20
850,83	10289,70
851,27	9845,80
851,70	10479,50
852,14	11361,30
852,58	11923,10
853,02	12486,90
853,46	13496,00
853,89	13001,80
854,33	12964,60
854,77	11420,20
855,21	11564,50
855,65	11860,10
856,08	12003,60
856,52	11556,40
856,96	11553,00
857,40	11153,20
857,83	10323,60
858,27	11202,30
858,71	10119,10
859,15	10091,30
859,58	10282,90
860,02	10479,00
860,46	10436,80
860,89	10797,40
861,33	10217,80
861,77	10315,80
862,21	10680,20
862,64	10525,40
863,08	10774,90
863,52	11171,30
863,95	10885,00
864,39	10384,30
864,83	10114,20
865,27	9574,80
865,70	9967,50
866,14	9762,90
866,58	10727,40
867,01	10347,80
867,45	11057,70
867,89	10548,50
868,32	10242,40
868,76	10422,40
869,20	10119,10
869,63	10818,50
870,07	11654,60
870,51	10503,10
870,94	10652,40
871,38	11071,30
871,82	10089,30
872,25	10169,10
872,69	10318,30
873,13	10052,10
873,56	10800,20
874,00	10838,90
874,43	10616,80
874,87	10794,30
875,31	11570,00
875,74	10622,00
876,18	11082,80
876,61	10522,40
877,05	10903,70
877,49	11422,10
877,92	11412,20
878,36	11897,90
878,79	11664,10
879,23	12073,10
879,67	11409,70
880,10	11231,10
880,54	11684,70
880,97	11578,30
881,41	11435,10
881,84	10546,80
882,28	10392,80
882,72	10518,30
883,15	10518,10
883,59	10530,90
884,02	10925,20
884,46	10708,50
884,89	11079,60
885,33	11432,40
885,76	10889,50
886,20	10944,50
886,63	11475,50
887,07	9930,70
887,50	9990,10
887,94	10340,70
888,37	10328,10
888,81	12031,30
889,24	10021,70
889,68	10721,80
890,11	10126,30
890,55	10672,20
890,98	11211,30
891,42	10561,10
891,85	11155,30
892,29	11394,60
892,72	10489,20
893,16	10428,80
893,59	10558,10
894,03	10202,90
894,46	10570,00
894,90	10353,50
895,33	10455,80
895,77	10749,30
896,20	11238,20
896,63	10739,40
897,07	10358,60
897,50	10552,60
897,94	10842,60
898,37	11341,10
898,81	10520,60
899,24	10332,30
899,68	10450,60
900,11	10981,60
900,54	10876,90
900,98	10826,00
901,41	11578,30
901,85	11439,10
902,28	10157,60
902,71	10162,10
903,15	11163,90
903,58	10597,00
904,02	11108,70
904,45	11213,00
904,88	11385,90
905,32	10883,00
905,75	11701,00
906,18	11057,60
906,62	10968,80
907,05	10550,40
907,48	10294,40
907,92	10620,30
908,35	10951,00
908,79	10115,40
909,22	9759,00
909,65	10398,80
910,09	10396,20
910,52	10318,20
910,95	10158,90
911,38	10529,80
911,82	10811,50
912,25	10418,70
912,68	10875,80
913,12	10709,50
913,55	10236,00
913,98	9927,50
914,42	10038,20
914,85	10273,30
915,28	10250,10
915,72	10857,30
916,15	10309,90
916,58	11263,40
917,01	10493,80
917,45	11140,50
917,88	10505,10
918,31	10474,30
918,74	10293,30
919,18	10802,00
919,61	10982,70
920,04	10572,70
920,47	11515,10
920,91	10821,70
921,34	10392,70
921,77	10198,10
922,20	10184,70
922,64	10923,10
923,07	11550,10
923,50	10789,20
923,93	10006,50
924,37	10755,50
924,80	9901,50
925,23	10548,40
925,66	11175,80
926,09	10132,70
926,53	10520,50
926,96	9809,10
927,39	11502,40
927,82	10434,70
928,25	9960,60
928,69	10765,30
929,12	10085,40
929,55	10406,90
929,98	10782,50
930,41	10060,40
930,84	10765,00
931,28	10035,90
931,71	11155,50
932,14	10673,30
932,57	11638,10
933,00	10280,30
933,43	10586,60
933,86	10717,50
934,30	10457,00
934,73	9989,90
935,16	9355,90
935,59	9789,70
936,02	9541,20
936,45	9974,10
936,88	9632,70
937,31	10257,70
937,75	9840,60
938,18	9894,10
938,61	10276,40
939,04	9610,30
939,47	9978,50
939,90	10189,10
940,33	10697,90
940,76	9515,20
941,19	10057,40
941,62	9348,20
942,05	9496,50
942,48	9897,30
942,91	9181,20
943,35	9092,30
943,78	9961,40
944,21	9975,40
944,64	9940,10
945,07	9756,50
945,50	9788,50
945,93	9826,10
946,36	10282,60
946,79	9629,90
947,22	9682,70
947,65	9992,90
948,08	9336,30
948,51	9365,40
948,94	9504,70
949,37	11109,60
949,80	10380,00
950,23	9649,50
950,66	9589,20
951,09	10088,20
951,52	9627,30
951,95	10510,80
952,38	9948,10
952,81	11006,80
953,24	9603,00
953,67	9720,20
954,10	9729,50
954,53	9624,30
954,96	9644,20
955,39	10098,00
955,82	9479,90
956,25	9968,00
956,68	10969,50
957,11	9291,30
957,53	9945,20
957,96	9876,10
958,39	9542,00
958,82	9592,50
959,25	9540,80
959,68	9055,90
960,11	9560,00
960,54	9940,10
960,97	9939,70
961,40	10207,50
961,83	10116,40
962,26	9559,60
962,68	9903,00
963,11	9726,60
963,54	9967,90
963,97	9877,90
964,40	9789,90
964,83	10394,90
965,26	9840,40
965,69	9790,50
966,11	10134,30
966,54	9622,80
966,97	9636,60
967,40	10275,00
967,83	11666,80
968,26	10065,40
968,69	9790,30
969,11	9972,80
969,54	9465,20
969,97	9581,20
970,40	10038,10
970,83	9639,10
971,26	9791,00
971,68	9423,00
972,11	9651,90
972,54	9762,20
972,97	10188,00
973,40	9828,10
973,82	10297,00
974,25	10040,00
974,68	9673,90
975,11	9625,70
975,54	9546,80
975,96	9890,40
976,39	9501,50
976,82	10132,50
977,25	9836,50
977,67	9756,60
978,10	9777,10
978,53	9598,20
978,96	10091,30
979,38	10008,90
979,81	9514,90
980,24	9858,90
980,67	10194,00
981,09	9769,00
981,52	9758,10
981,95	9611,80
982,38	9760,60
982,80	9577,10
983,23	10231,40
983,66	10166,40
984,08	9466,30
984,51	9134,00
984,94	9657,40
985,37	9959,10
985,79	9588,30
986,22	9376,40
986,65	9851,00
987,07	9610,40
987,50	9691,50
987,93	9596,70
988,35	9796,70
988,78	9662,10
989,21	9456,70
989,63	9803,50
990,06	9682,20
990,49	9883,40
990,91	10532,90
991,34	9637,40
991,77	9490,20
992,19	9791,50
992,62	9620,90
993,05	9623,50
993,47	10051,90
993,90	10085,00
994,32	9869,90
994,75	9746,00
995,18	9206,40
995,60	9335,00
996,03	9101,40
996,45	10150,30
996,88	9999,40
997,31	9480,00
997,73	9768,20
998,16	9356,60
998,58	10335,70
999,01	9704,60
999,44	9828,10
999,86	10346,80
1000,29	9422,80
1000,71	9850,30
1001,14	10061,70
1001,56	9756,10
1001,99	9896,60
1002,41	9735,10
1002,84	9986,40
1003,27	9362,40
1003,69	9851,10
1004,12	9795,70
1004,54	10332,00
1004,97	9573,60
1005,39	9228,70
1005,82	9830,80
1006,24	9663,00
1006,67	9471,80
1007,09	9296,30
1007,52	9639,50
1007,94	9656,40
1008,37	11496,80
1008,79	10272,60
1009,22	10181,70
1009,64	9965,60
1010,07	9995,90
1010,49	10223,50
1010,92	9669,30
1011,34	10061,80
1011,77	9788,80
1012,19	9922,50
1012,62	9880,10
1013,04	9337,60
1013,46	10220,30
1013,89	9095,10
1014,31	9908,50
1014,74	9377,90
1015,16	9566,30
1015,59	9171,00
1016,01	9784,20
1016,44	9454,70
1016,86	14692,30
1017,28	9497,10
1017,71	9069,20
1018,13	10906,50
1018,56	10193,60
1018,98	9943,90
1019,40	9516,60
1019,83	9641,70
1020,25	9827,10
1020,68	9859,90
1021,10	9949,80
1021,52	9729,30
1021,95	11444,70
1022,37	10266,90
1022,79	10207,70
1023,22	10093,90
1023,64	9900,30
1024,07	9904,20
1024,49	10067,60
1024,91	9470,00
1025,34	9396,20
1025,76	10745,20
1026,18	9971,30
1026,61	9893,70
1027,03	9772,50
1027,45	9858,30
1027,88	9560,90
1028,30	10877,60
1028,72	9890,30
1029,15	9832,60
1029,57	9985,80
1029,99	10486,70
1030,41	9425,70
1030,84	9926,10
1031,26	10247,50
1031,68	9731,20
1032,11	10279,00
1032,53	9591,50
1032,95	9586,70
1033,37	10033,70
1033,80	10262,40
1034,22	9683,70
1034,64	10813,20
1035,06	9750,30
1035,49	9727,60
1035,91	9977,50
1036,33	9398,00
1036,75	10169,00
1037,18	10159,40
1037,60	10058,40
1038,02	10196,20
1038,44	10462,20
1038,87	9672,90
1039,29	9685,50
1039,71	9921,60
1040,13	9632,90
1040,55	10412,70
1040,98	10254,30
1041,40	9987,10
1041,82	10125,50
1042,24	9632,70
1042,66	9999,20
1043,09	9297,30
1043,51	9560,30
1043,93	9494,70
1044,35	9246,50
1044,77	9622,50
1045,20	9803,90
1045,62	9276,70
1046,04	9734,20
1046,46	9880,70
1046,88	9184,20
1047,30	9986,40
1047,72	9769,80
1048,15	9881,10
1048,57	9446,80
1048,99	9495,50
1049,41	9743,30
1049,83	9947,50
1050,25	10373,90
1050,67	10029,60
1051,09	9563,90
1051,52	9705,40
1051,94	8787,20
1052,36	9504,60
1052,78	8871,40
1053,20	9396,60
1053,62	9233,60
1054,04	9626,20
1054,46	9690,40
1054,88	10327,00
1055,30	9933,10
1055,72	9908,00
1056,14	9526,20
1056,57	11198,70
1056,99	9067,30
1057,41	9605,50
1057,83	9667,60
1058,25	9242,60
1058,67	9309,40
1059,09	9184,70
1059,51	9784,80
1059,93	9455,60
1060,35	9245,10
1060,77	9703,40
1061,19	10023,70
1061,61	9490,90
1062,03	9352,10
1062,45	9202,70
1062,87	9767,50
1063,29	9884,60
1063,71	9367,00
1064,13	9170,00
1064,55	8978,60
1064,97	9875,50
1065,39	9434,00
1065,81	9390,80
1066,23	9504,80
1066,65	9208,20
1067,07	10241,70
1067,49	9378,00
1067,91	9141,40
1068,33	8868,30
1068,75	9744,50
1069,17	9765,30
1069,59	9710,00
1070,00	9192,00
1070,42	9545,40
1070,84	9107,10
1071,26	8878,90
1071,68	8827,70
1072,10	9565,60
1072,52	9085,70
1072,94	8815,70
1073,36	9020,20
1073,78	9069,10
1074,20	9286,40
1074,62	8979,80
1075,03	8911,50
1075,45	9083,70
1075,87	9560,60
1076,29	9038,90
1076,71	9501,60
1077,13	9882,80
1077,55	8548,60
1077,97	9279,70
1078,38	9034,00
1078,80	9138,50
1079,22	9394,40
1079,64	9146,80
1080,06	8988,00
1080,48	9287,50
1080,89	9119,30
1081,31	9087,90
1081,73	9106,30
1082,15	9129,30
1082,57	9519,80
1082,99	9131,70
1083,40	8987,10
1083,82	9691,70
1084,24	8826,30
1084,66	8923,80
1085,08	9238,70
1085,49	8538,60
1085,91	9351,00
1086,33	18946,00
1086,75	9266,20
1087,17	8853,10
1087,58	8894,50
1088,00	8966,30
1088,42	9572,90
1088,84	9029,70
1089,25	8715,70
1089,67	8947,30
1090,09	8953,60
1090,51	8791,70
1090,92	8991,30
1091,34	8869,90
1091,76	9014,70
1092,18	8907,70
1092,59	8981,30
1093,01	8922,20
1093,43	9062,30
1093,84	8762,90
1094,26	9032,10
1094,68	9150,80
1095,10	8654,10
1095,51	9006,90
1095,93	8819,30
1096,35	9251,80
1096,76	9224,00
1097,18	9212,70
1097,60	8892,80
1098,01	8849,90
1098,43	8612,80
1098,85	8847,30
1099,26	8715,40
1099,68	8947,90
1100,10	8553,70
1100,51	8671,00
1100,93	8829,10
1101,35	8856,30
1101,76	8960,30
1102,18	12071,90
1102,60	9459,60
1103,01	8158,40
1103,43	8887,30
1103,84	8779,00
1104,26	8569,60
1104,68	8850,60
1105,09	8154,00
1105,51	8367,30
1105,92	9192,40
1106,34	8311,70
1106,76	8974,80
1107,17	8879,40
1107,59	8937,90
1108,00	8142,40
1108,42	8586,20
1108,83	8229,50
1109,25	8550,60
1109,67	8260,70
1110,08	8284,80
1110,50	8078,50
1110,91	8493,60
1111,33	8269,80
1111,74	8236,50
1112,16	8608,70
1112,57	8719,10
1112,99	8341,10
1113,41	8501,90
1113,82	8364,20
1114,24	8660,70
1114,65	8484,00
1115,07	8180,10
1115,48	7936,00
1115,90	2069,00
1116,31	2204,40
1116,73	2193,00
1117,14	2193,20
>>>>>End Processed Spectral Data<<<<<
