SpectraSuite Data File
++++++++++++++++++++++++++++++++++++
Date: Thu Mar 13 10:24:30 EET 2014
User: OO Maya
Dark Spectrum Present: No
Reference Spectrum Present: No
Number of Sampled Component Spectra: 1
Spectrometers: MAYP11278
Integration Time (usec): 5000000 (MAYP11278)
Spectra Averaged: 10 (MAYP11278)
Boxcar Smoothing: 0 (MAYP11278)
Correct for Electrical Dark: No (MAYP11278)
Strobe/Lamp Enabled: No (MAYP11278)
Correct for Detector Non-linearity: No (MAYP11278)
Correct for Stray Light: No (MAYP11278)
Number of Pixels in Processed Spectrum: 2068
>>>>>Begin Processed Spectral Data<<<<<
188,22	2311,30
188,70	2226,80
189,18	2195,70
189,66	2195,40
190,13	10494,30
190,61	11017,20
191,09	11133,20
191,57	11196,20
192,05	11809,50
192,53	11196,20
193,00	10894,50
193,48	10610,80
193,96	11177,50
194,44	11010,60
194,92	11359,20
195,40	11021,10
195,87	11667,60
196,35	11008,10
196,83	11168,80
197,31	12603,20
197,79	11252,90
198,26	10785,30
198,74	10991,30
199,22	10835,20
199,70	11389,60
200,18	11651,00
200,65	11038,80
201,13	11114,20
201,61	11631,30
202,09	11568,30
202,56	11591,70
203,04	10734,50
203,52	11489,40
204,00	10894,00
204,47	11728,30
204,95	11979,60
205,43	11015,70
205,91	11005,00
206,39	12050,00
206,86	11169,10
207,34	11538,70
207,82	12829,80
208,30	11344,70
208,77	11710,50
209,25	11174,60
209,73	11830,60
210,20	11673,70
210,68	11299,90
211,16	11252,80
211,64	11598,80
212,11	11304,50
212,59	10998,50
213,07	12345,60
213,55	11682,40
214,02	10991,80
214,50	12324,80
214,98	11530,40
215,45	12102,70
215,93	11552,10
216,41	11701,80
216,89	11742,60
217,36	11723,10
217,84	11089,70
218,32	11314,80
218,79	12119,90
219,27	10748,20
219,75	11064,30
220,22	11143,60
220,70	11365,70
221,18	12676,00
221,65	11096,70
222,13	11931,60
222,61	11117,10
223,08	11941,80
223,56	11243,70
224,04	11913,10
224,51	11324,40
224,99	11208,80
225,47	10986,10
225,94	11361,30
226,42	11102,60
226,90	11495,70
227,37	12014,70
227,85	11357,10
228,33	11683,50
228,80	11821,90
229,28	11719,70
229,76	11326,90
230,23	11460,70
230,71	11253,10
231,18	11817,70
231,66	11886,10
232,14	11526,10
232,61	11598,90
233,09	11022,50
233,57	11565,60
234,04	11676,70
234,52	13388,40
234,99	11642,40
235,47	11131,70
235,95	11067,20
236,42	10841,00
236,90	12004,20
237,37	12697,60
237,85	11247,20
238,33	11575,00
238,80	11564,00
239,28	11596,90
239,75	11450,80
240,23	10892,60
240,70	11807,50
241,18	12202,60
241,66	11607,70
242,13	11359,40
242,61	11929,40
243,08	12138,50
243,56	10951,40
244,03	11098,90
244,51	11930,90
244,99	12270,70
245,46	11354,90
245,94	12213,90
246,41	12132,40
246,89	11198,20
247,36	11541,30
247,84	11560,90
248,31	11635,80
248,79	11772,40
249,26	10739,30
249,74	11608,60
250,22	11943,90
250,69	11642,80
251,17	12290,80
251,64	11545,30
252,12	12586,70
252,59	12213,60
253,07	11348,80
253,54	12248,10
254,02	11570,20
254,49	11456,10
254,97	11701,20
255,44	11641,80
255,92	11999,50
256,39	11321,20
256,87	11719,80
257,34	11874,90
257,82	12135,70
258,29	13230,90
258,77	11561,80
259,24	11308,70
259,72	11703,60
260,19	11900,10
260,67	12509,30
261,14	11475,50
261,61	11389,50
262,09	12130,90
262,56	11177,70
263,04	11700,20
263,51	11525,50
263,99	10905,80
264,46	12119,90
264,94	12139,20
265,41	11382,10
265,89	11695,70
266,36	11803,30
266,83	11942,10
267,31	11462,30
267,78	11517,10
268,26	11647,50
268,73	11795,70
269,21	10760,40
269,68	11211,10
270,15	11275,00
270,63	11921,70
271,10	12151,70
271,58	11419,40
272,05	11641,40
272,53	10994,40
273,00	10951,80
273,47	10618,20
273,95	11565,60
274,42	13521,60
274,90	11991,10
275,37	12032,10
275,84	11302,50
276,32	11460,50
276,79	11834,40
277,26	11994,40
277,74	11047,10
278,21	11513,40
278,69	11071,60
279,16	13859,50
279,63	11379,50
280,11	11304,40
280,58	13689,20
281,05	12080,30
281,53	13400,50
282,00	11266,60
282,48	12178,80
282,95	11431,60
283,42	11492,30
283,90	11778,90
284,37	11091,90
284,84	11052,30
285,32	11993,00
285,79	11529,50
286,26	11730,30
286,74	11767,30
287,21	10894,70
287,68	11819,40
288,16	12494,60
288,63	11469,90
289,10	11909,80
289,58	10693,20
290,05	12368,50
290,52	11192,60
291,00	11717,20
291,47	11241,70
291,94	11858,20
292,41	12851,70
292,89	11197,50
293,36	12175,50
293,83	11329,60
294,31	11880,20
294,78	11862,60
295,25	11279,00
295,73	11580,90
296,20	11746,90
296,67	12639,20
297,14	12487,20
297,62	11984,70
298,09	11879,70
298,56	11855,50
299,03	11342,40
299,51	12477,30
299,98	11533,80
300,45	11850,20
300,92	11336,00
301,40	12189,40
301,87	12160,10
302,34	12071,30
302,82	11165,60
303,29	12051,90
303,76	12125,20
304,23	11237,50
304,70	11330,90
305,18	11187,30
305,65	11702,90
306,12	11820,40
306,59	11832,60
307,07	11942,20
307,54	11371,50
308,01	11396,20
308,48	11777,60
308,95	11430,00
309,43	12117,50
309,90	12171,60
310,37	11829,80
310,84	11712,20
311,32	11859,60
311,79	11291,90
312,26	12186,30
312,73	11606,70
313,20	12621,30
313,68	11384,70
314,15	11448,00
314,62	11740,70
315,09	11402,70
315,56	11275,60
316,03	12134,60
316,51	11920,40
316,98	11753,30
317,45	11979,20
317,92	11705,90
318,39	13291,10
318,86	11641,90
319,34	11536,90
319,81	10961,00
320,28	11852,30
320,75	12669,90
321,22	12012,60
321,69	11436,20
322,16	10739,60
322,64	11143,90
323,11	12609,80
323,58	11492,20
324,05	13025,00
324,52	10989,20
324,99	11780,70
325,46	11597,10
325,94	11513,50
326,41	11485,80
326,88	11441,40
327,35	12027,00
327,82	11847,30
328,29	11939,10
328,76	11754,30
329,23	11502,70
329,70	11421,20
330,18	11487,60
330,65	11215,50
331,12	12133,90
331,59	11929,00
332,06	12617,70
332,53	11232,70
333,00	12740,50
333,47	12069,20
333,94	11962,20
334,41	12420,70
334,88	11808,00
335,35	11971,20
335,83	13691,10
336,30	11120,40
336,77	11580,90
337,24	11426,80
337,71	11830,10
338,18	11431,80
338,65	11457,50
339,12	12516,70
339,59	12149,00
340,06	11082,70
340,53	11294,40
341,00	11156,70
341,47	11891,70
341,94	12172,70
342,41	11379,30
342,88	11738,30
343,35	12059,30
343,82	11752,20
344,29	11443,70
344,76	11653,10
345,23	11225,50
345,70	11643,30
346,17	11925,50
346,64	11369,80
347,11	11311,50
347,58	12531,30
348,05	11348,30
348,52	12252,70
348,99	11734,80
349,46	10949,70
349,93	11680,50
350,40	12102,80
350,87	11678,30
351,34	11141,50
351,81	11754,70
352,28	12686,80
352,75	11824,70
353,22	11574,50
353,69	11739,70
354,16	11953,90
354,63	11820,30
355,10	11992,50
355,57	11827,70
356,04	12535,10
356,51	11332,60
356,98	12584,50
357,45	11230,30
357,92	12964,50
358,39	11998,60
358,86	11133,70
359,33	11185,30
359,80	11430,10
360,27	11397,20
360,74	12131,60
361,20	12506,40
361,67	11496,70
362,14	11555,50
362,61	11696,20
363,08	11604,90
363,55	11599,00
364,02	13026,30
364,49	12023,30
364,96	11298,50
365,43	11995,00
365,90	11341,80
366,37	11072,60
366,83	11742,90
367,30	11634,40
367,77	19608,20
368,24	10712,10
368,71	11178,90
369,18	12086,40
369,65	11097,00
370,12	12122,40
370,59	11806,80
371,05	11399,20
371,52	11361,20
371,99	11872,50
372,46	11279,80
372,93	10958,50
373,40	11338,40
373,87	11627,90
374,33	11053,00
374,80	11167,40
375,27	11691,20
375,74	10866,60
376,21	12484,80
376,68	11387,10
377,15	11081,00
377,61	11006,60
378,08	11829,00
378,55	11692,50
379,02	11628,30
379,49	11614,00
379,96	11593,10
380,42	11951,40
380,89	12508,40
381,36	11696,20
381,83	12489,00
382,30	12486,50
382,76	10910,60
383,23	11810,70
383,70	11442,00
384,17	12126,50
384,64	11687,00
385,10	14522,20
385,57	11622,30
386,04	11365,90
386,51	11445,50
386,98	12600,90
387,44	11154,80
387,91	11020,40
388,38	12138,10
388,85	11824,40
389,31	12292,70
389,78	11264,10
390,25	11972,40
390,72	11713,10
391,19	11882,70
391,65	11765,10
392,12	11720,40
392,59	11786,20
393,06	11451,70
393,52	11446,10
393,99	13046,40
394,46	11556,10
394,93	12251,40
395,39	11281,00
395,86	11996,90
396,33	14378,50
396,80	11015,30
397,26	11922,30
397,73	12110,10
398,20	11106,70
398,66	11604,30
399,13	11363,20
399,60	11080,70
400,07	12255,30
400,53	11036,00
401,00	11570,50
401,47	11352,40
401,93	11856,60
402,40	11686,60
402,87	11600,60
403,34	11170,70
403,80	12455,30
404,27	11464,00
404,74	12404,90
405,20	12640,70
405,67	12362,60
406,14	11159,10
406,60	12113,00
407,07	11903,40
407,54	12851,80
408,00	11594,50
408,47	11714,60
408,94	11949,50
409,40	11064,90
409,87	12309,20
410,34	11090,30
410,80	12264,70
411,27	11236,80
411,74	12344,00
412,20	11420,30
412,67	10758,70
413,14	11866,60
413,60	11433,00
414,07	11811,80
414,53	11944,30
415,00	12571,80
415,47	11533,80
415,93	12509,90
416,40	11770,20
416,87	11705,30
417,33	12673,10
417,80	11881,50
418,26	11475,50
418,73	11703,20
419,20	11652,20
419,66	12111,30
420,13	11318,50
420,59	12066,40
421,06	11062,60
421,53	11577,90
421,99	11278,30
422,46	11843,20
422,92	11331,10
423,39	11517,30
423,86	11825,30
424,32	12102,30
424,79	11593,20
425,25	12134,50
425,72	11566,40
426,18	12415,30
426,65	11453,30
427,11	12363,90
427,58	12020,80
428,05	12092,60
428,51	11095,70
428,98	12202,20
429,44	11885,30
429,91	11646,90
430,37	11790,50
430,84	13481,60
431,30	10994,10
431,77	11491,40
432,23	12526,80
432,70	12119,40
433,17	11519,10
433,63	11238,40
434,10	11599,60
434,56	11423,00
435,03	11990,10
435,49	11005,20
435,96	12006,30
436,42	11711,00
436,89	10973,60
437,35	12057,70
437,82	11847,80
438,28	11760,10
438,75	11277,10
439,21	11441,80
439,68	13922,20
440,14	11791,80
440,61	12086,10
441,07	12302,20
441,54	11230,80
442,00	11456,80
442,47	13116,90
442,93	11076,00
443,39	11703,20
443,86	11723,20
444,32	11002,20
444,79	12556,50
445,25	11945,20
445,72	11714,30
446,18	11600,60
446,65	11844,10
447,11	11561,40
447,58	11667,90
448,04	11375,20
448,50	11236,30
448,97	11948,80
449,43	11944,70
449,90	11550,70
450,36	11226,70
450,83	11069,20
451,29	11240,90
451,75	11807,20
452,22	12059,40
452,68	11191,10
453,15	12227,70
453,61	11585,20
454,08	11528,50
454,54	11623,80
455,00	11855,80
455,47	11325,70
455,93	11694,00
456,40	12139,80
456,86	11331,80
457,32	12425,80
457,79	11495,90
458,25	11561,20
458,71	10993,50
459,18	11762,40
459,64	11512,50
460,11	11701,20
460,57	11332,60
461,03	11088,60
461,50	12430,80
461,96	12167,20
462,42	11223,60
462,89	11003,10
463,35	12244,20
463,81	11535,00
464,28	11728,60
464,74	11720,60
465,21	11111,40
465,67	11336,90
466,13	12165,40
466,60	11591,10
467,06	11886,70
467,52	11886,70
467,99	11537,70
468,45	11772,60
468,91	11862,20
469,37	11527,00
469,84	11196,10
470,30	11851,40
470,76	11711,60
471,23	11374,80
471,69	11484,10
472,15	11177,70
472,62	11366,10
473,08	11484,30
473,54	12399,40
474,01	11559,30
474,47	11180,80
474,93	11568,60
475,39	11064,90
475,86	11799,80
476,32	11597,20
476,78	11811,70
477,25	11533,50
477,71	11682,80
478,17	12463,00
478,63	11741,40
479,10	12195,00
479,56	11239,40
480,02	12654,60
480,48	11915,90
480,95	11779,80
481,41	11372,80
481,87	11580,90
482,33	11713,80
482,80	11085,70
483,26	11466,70
483,72	10911,40
484,18	11482,40
484,65	12513,50
485,11	11774,00
485,57	11623,50
486,03	10795,40
486,49	11507,70
486,96	10798,60
487,42	11871,50
487,88	10976,60
488,34	10908,50
488,80	11257,70
489,27	11703,50
489,73	11625,60
490,19	12159,20
490,65	10985,90
491,11	11633,20
491,58	10917,80
492,04	11322,90
492,50	10777,00
492,96	12176,70
493,42	11679,30
493,89	11591,30
494,35	11108,10
494,81	11394,50
495,27	11201,70
495,73	11119,70
496,19	11636,90
496,66	11329,90
497,12	11500,50
497,58	12626,90
498,04	12207,10
498,50	11244,30
498,96	11680,20
499,43	11385,20
499,89	13013,40
500,35	11598,70
500,81	11258,40
501,27	11488,50
501,73	11333,80
502,19	11943,90
502,65	11528,90
503,12	11581,70
503,58	11525,60
504,04	11792,20
504,50	11254,90
504,96	11857,10
505,42	11762,60
505,88	11200,00
506,34	11598,10
506,80	12075,20
507,27	11502,00
507,73	11857,80
508,19	11768,60
508,65	11274,70
509,11	11189,20
509,57	10840,90
510,03	11377,00
510,49	11515,20
510,95	11176,90
511,41	12281,30
511,87	12297,40
512,33	11176,50
512,80	10843,30
513,26	11238,60
513,72	11775,60
514,18	10672,50
514,64	12047,40
515,10	12687,10
515,56	10822,50
516,02	11649,20
516,48	12135,90
516,94	12053,90
517,40	12974,70
517,86	11765,60
518,32	11548,40
518,78	13753,90
519,24	11460,20
519,70	11208,00
520,16	10985,80
520,62	11199,60
521,08	11677,20
521,54	11863,70
522,00	11967,10
522,46	11583,10
522,92	10966,20
523,38	12591,10
523,84	12084,80
524,30	11367,80
524,76	12441,90
525,22	11916,70
525,68	11862,70
526,14	12340,10
526,60	11730,10
527,06	11560,60
527,52	11309,70
527,98	11462,60
528,44	12011,40
528,90	11848,60
529,36	11403,30
529,82	11046,30
530,28	11879,00
530,74	11927,80
531,20	10824,10
531,66	12219,00
532,12	11528,00
532,58	11584,60
533,04	11598,10
533,50	11824,00
533,96	11466,10
534,42	10994,50
534,88	11452,80
535,33	11336,00
535,79	11684,20
536,25	11321,70
536,71	11816,20
537,17	11058,20
537,63	11863,60
538,09	11490,30
538,55	11575,50
539,01	12504,40
539,47	11948,90
539,93	14815,10
540,39	10849,40
540,84	12595,70
541,30	11619,70
541,76	10986,80
542,22	11888,60
542,68	11853,60
543,14	11311,00
543,60	13206,10
544,06	10995,00
544,52	12706,90
544,97	11938,20
545,43	11378,00
545,89	11403,40
546,35	12066,60
546,81	11559,50
547,27	11800,90
547,73	11989,90
548,19	11727,20
548,64	11486,80
549,10	11366,60
549,56	11153,40
550,02	12923,60
550,48	11435,80
550,94	10965,80
551,39	11805,60
551,85	11630,40
552,31	12663,20
552,77	11699,20
553,23	11128,70
553,69	11842,90
554,14	11428,80
554,60	11093,00
555,06	11745,50
555,52	11681,00
555,98	12646,60
556,43	11651,60
556,89	12388,70
557,35	10804,70
557,81	11728,70
558,27	12858,60
558,72	11379,80
559,18	11484,80
559,64	11138,70
560,10	11155,50
560,56	11094,00
561,01	11554,80
561,47	11432,40
561,93	11489,50
562,39	11235,90
562,85	11198,40
563,30	11578,20
563,76	12176,00
564,22	11067,70
564,68	11707,20
565,13	11369,90
565,59	11487,50
566,05	11655,90
566,51	12211,80
566,96	11406,30
567,42	11199,50
567,88	11588,00
568,34	12091,60
568,79	11236,30
569,25	11494,20
569,71	11909,00
570,16	11623,10
570,62	11549,30
571,08	12024,00
571,54	11916,40
571,99	11473,40
572,45	11680,20
572,91	11785,50
573,36	11260,90
573,82	11246,20
574,28	11578,40
574,74	12256,40
575,19	12018,20
575,65	10982,80
576,11	11686,80
576,56	10657,00
577,02	12208,60
577,48	11388,80
577,93	11359,30
578,39	10929,10
578,85	12353,10
579,30	11501,80
579,76	11227,20
580,22	11730,90
580,67	11745,00
581,13	11527,40
581,59	11622,10
582,04	11644,90
582,50	11445,40
582,96	10971,20
583,41	11518,30
583,87	11681,70
584,33	11473,20
584,78	11869,80
585,24	11268,90
585,69	13143,00
586,15	11404,10
586,61	11471,90
587,06	11488,20
587,52	11541,30
587,98	12172,00
588,43	10963,40
588,89	11909,80
589,34	11459,70
589,80	11188,10
590,26	11754,50
590,71	11985,40
591,17	11335,10
591,62	10918,80
592,08	12345,50
592,54	11273,90
592,99	11778,50
593,45	11473,30
593,90	12096,50
594,36	11596,80
594,81	11501,70
595,27	12346,20
595,73	11364,90
596,18	11134,90
596,64	12393,90
597,09	12013,20
597,55	12274,90
598,00	11731,30
598,46	10916,50
598,92	11563,60
599,37	12327,40
599,83	11196,10
600,28	11917,70
600,74	12195,00
601,19	11842,70
601,65	11989,60
602,10	10874,30
602,56	13404,50
603,01	11311,30
603,47	11574,80
603,92	10868,40
604,38	10775,80
604,83	11900,30
605,29	11366,20
605,74	11834,30
606,20	11640,90
606,65	10831,00
607,11	11569,60
607,56	11339,80
608,02	11627,80
608,47	11991,00
608,93	11567,90
609,38	13063,80
609,84	12055,10
610,29	11422,00
610,75	11282,50
611,20	11622,70
611,66	10958,40
612,11	12642,50
612,57	11907,00
613,02	11607,40
613,48	13433,10
613,93	10946,50
614,39	10976,60
614,84	10992,50
615,30	10962,80
615,75	11446,10
616,20	11533,70
616,66	11068,20
617,11	11415,10
617,57	11477,00
618,02	11975,10
618,48	11199,70
618,93	11282,50
619,38	11428,10
619,84	11961,00
620,29	11403,90
620,75	11966,60
621,20	12097,60
621,66	11525,80
622,11	12006,40
622,56	12298,00
623,02	12142,00
623,47	11178,40
623,93	11203,80
624,38	12160,00
624,83	10869,90
625,29	11467,30
625,74	11728,70
626,20	11049,70
626,65	11507,00
627,10	11711,40
627,56	11010,90
628,01	11931,20
628,46	11983,50
628,92	10724,10
629,37	11470,70
629,82	11653,10
630,28	11228,50
630,73	11854,80
631,19	11501,60
631,64	12007,30
632,09	11746,80
632,55	12207,60
633,00	11236,60
633,45	11385,70
633,91	11134,40
634,36	11235,70
634,81	11035,50
635,27	11359,80
635,72	11213,20
636,17	10845,10
636,63	11535,60
637,08	11434,10
637,53	11113,30
637,99	11940,00
638,44	12071,50
638,89	11291,10
639,34	11469,80
639,80	11021,30
640,25	10754,20
640,70	11684,20
641,16	11995,40
641,61	10848,40
642,06	11212,00
642,51	11391,60
642,97	10791,90
643,42	11250,80
643,87	11941,60
644,33	11167,20
644,78	10975,00
645,23	11314,80
645,68	10972,40
646,14	11415,80
646,59	11533,90
647,04	11765,70
647,49	11909,10
647,95	11619,30
648,40	11703,40
648,85	10962,00
649,30	12191,80
649,76	11740,40
650,21	14117,30
650,66	11042,40
651,11	11093,10
651,57	11157,30
652,02	11668,30
652,47	10992,30
652,92	11457,60
653,37	11330,90
653,83	11143,20
654,28	11485,00
654,73	11712,10
655,18	11317,60
655,63	10907,40
656,09	11912,60
656,54	11102,40
656,99	11497,00
657,44	11858,90
657,89	11859,70
658,35	11051,80
658,80	11597,80
659,25	10996,80
659,70	14091,90
660,15	11257,20
660,60	12090,40
661,06	11423,00
661,51	11004,80
661,96	11431,20
662,41	10986,60
662,86	10754,00
663,31	11764,90
663,77	11226,80
664,22	11251,50
664,67	11363,70
665,12	10935,30
665,57	11592,70
666,02	10875,20
666,47	11608,70
666,93	11540,90
667,38	13035,20
667,83	12245,80
668,28	11079,70
668,73	11667,20
669,18	11025,30
669,63	12868,40
670,08	10640,60
670,53	11120,60
670,99	12127,70
671,44	11491,80
671,89	12415,70
672,34	12910,80
672,79	11475,10
673,24	11508,90
673,69	12178,30
674,14	13524,30
674,59	11592,10
675,04	11669,30
675,49	10773,30
675,95	10911,10
676,40	11557,50
676,85	11323,60
677,30	11326,50
677,75	11370,90
678,20	13036,50
678,65	11155,00
679,10	11339,40
679,55	11622,00
680,00	11176,40
680,45	11445,10
680,90	11467,30
681,35	10491,70
681,80	10560,30
682,25	11285,90
682,70	11460,70
683,15	11824,70
683,60	11670,10
684,05	11657,90
684,50	12150,10
684,95	11755,90
685,40	11595,90
685,85	11699,60
686,30	11353,40
686,75	10997,70
687,20	11504,20
687,65	11127,30
688,10	11573,80
688,55	11434,00
689,00	13184,40
689,45	11861,30
689,90	10676,50
690,35	11282,90
690,80	11359,30
691,25	10776,30
691,70	11422,40
692,15	10728,80
692,60	11450,20
693,05	11308,60
693,50	11789,80
693,95	11736,10
694,40	11464,70
694,85	11640,40
695,30	14217,90
695,75	11578,00
696,20	11525,20
696,65	12581,00
697,10	11369,10
697,55	11216,40
698,00	11739,00
698,45	11076,60
698,90	11887,10
699,34	11852,10
699,79	11148,30
700,24	11349,80
700,69	11813,80
701,14	11964,90
701,59	13896,20
702,04	10825,60
702,49	12336,60
702,94	11108,70
703,39	11264,80
703,84	11629,90
704,28	11379,10
704,73	11213,50
705,18	12144,00
705,63	12091,20
706,08	12005,50
706,53	10913,90
706,98	11875,80
707,43	11528,90
707,87	11345,20
708,32	11738,10
708,77	11996,90
709,22	11582,80
709,67	11220,90
710,12	11410,50
710,57	11445,70
711,01	11128,00
711,46	11785,80
711,91	11529,00
712,36	11550,00
712,81	11018,00
713,26	12697,70
713,71	11450,50
714,15	11523,90
714,60	12315,70
715,05	11963,90
715,50	11334,00
715,95	11525,50
716,39	11249,00
716,84	11265,00
717,29	10861,90
717,74	10801,30
718,19	11773,30
718,63	12509,60
719,08	10967,80
719,53	10890,30
719,98	11521,80
720,43	11419,50
720,87	11096,60
721,32	11615,10
721,77	11256,00
722,22	11728,80
722,67	11365,40
723,11	10878,60
723,56	10759,40
724,01	11619,00
724,46	10672,00
724,90	11736,90
725,35	10645,10
725,80	11348,70
726,25	11329,50
726,69	11500,10
727,14	12630,20
727,59	10985,40
728,04	12334,80
728,48	11779,20
728,93	11287,10
729,38	12193,60
729,83	11168,10
730,27	12023,60
730,72	10965,10
731,17	11519,20
731,61	11741,80
732,06	11574,50
732,51	11632,60
732,96	11067,70
733,40	11824,20
733,85	11594,90
734,30	11116,60
734,74	11899,80
735,19	11832,40
735,64	11515,30
736,09	13136,50
736,53	11059,20
736,98	11440,20
737,43	12017,80
737,87	11809,00
738,32	11502,00
738,77	11332,70
739,21	11508,00
739,66	10806,30
740,11	12144,60
740,55	11689,80
741,00	10978,10
741,45	11692,50
741,89	11860,90
742,34	11422,90
742,79	11492,40
743,23	10979,30
743,68	11044,20
744,12	11407,00
744,57	12070,90
745,02	12012,50
745,46	11773,90
745,91	11949,60
746,36	12319,80
746,80	10441,80
747,25	11002,20
747,69	10792,80
748,14	11743,30
748,59	11410,50
749,03	11254,90
749,48	11644,80
749,92	13172,00
750,37	11503,30
750,82	11320,20
751,26	10841,90
751,71	11204,60
752,15	11200,40
752,60	11324,10
753,05	12647,90
753,49	11150,20
753,94	11287,00
754,38	10814,00
754,83	11220,70
755,27	10929,80
755,72	11298,10
756,17	11484,90
756,61	12141,50
757,06	11326,10
757,50	12209,90
757,95	11485,50
758,39	11341,80
758,84	11351,90
759,28	11373,20
759,73	10897,60
760,17	11316,20
760,62	11672,60
761,07	11433,90
761,51	11898,50
761,96	12187,00
762,40	11300,70
762,85	10898,10
763,29	11266,00
763,74	11934,30
764,18	11390,10
764,63	10847,30
765,07	11148,70
765,52	11662,40
765,96	10949,00
766,41	10895,60
766,85	11116,00
767,30	11437,60
767,74	11494,10
768,19	11665,50
768,63	11852,90
769,07	11335,30
769,52	12647,50
769,96	10937,00
770,41	11308,20
770,85	11046,10
771,30	10911,40
771,74	11731,30
772,19	11559,10
772,63	11595,60
773,08	10673,20
773,52	11253,10
773,97	11211,40
774,41	10539,70
774,85	11367,90
775,30	10961,80
775,74	11497,10
776,19	11406,00
776,63	10962,60
777,08	11310,70
777,52	11285,10
777,96	11647,40
778,41	11770,00
778,85	11239,60
779,30	11471,00
779,74	13191,60
780,18	12358,20
780,63	11447,80
781,07	12040,00
781,52	11685,80
781,96	11040,70
782,40	11573,70
782,85	10905,30
783,29	11213,70
783,74	11747,40
784,18	11939,80
784,62	11417,10
785,07	11243,40
785,51	11289,30
785,95	11025,50
786,40	11770,40
786,84	12079,60
787,28	12164,30
787,73	10910,70
788,17	11102,40
788,61	11557,50
789,06	11140,90
789,50	11283,70
789,94	11112,70
790,39	11494,70
790,83	10988,20
791,27	11082,90
791,72	12063,10
792,16	11184,60
792,60	11411,20
793,05	11185,30
793,49	14034,30
793,93	12128,80
794,38	11508,40
794,82	11580,90
795,26	11407,30
795,71	10978,50
796,15	11637,40
796,59	11369,80
797,03	11409,60
797,48	11140,90
797,92	10882,00
798,36	11414,90
798,81	12023,20
799,25	11563,10
799,69	10970,40
800,13	12478,30
800,58	11620,60
801,02	11115,20
801,46	11698,90
801,90	11490,40
802,35	11058,70
802,79	12055,30
803,23	12504,90
803,67	11823,50
804,12	11581,70
804,56	11389,40
805,00	11185,70
805,44	12549,20
805,89	12807,10
806,33	12569,40
806,77	11911,60
807,21	12792,40
807,66	11303,10
808,10	11482,40
808,54	10966,80
808,98	11717,20
809,42	11487,00
809,87	11103,90
810,31	10946,00
810,75	11720,00
811,19	12235,40
811,63	13684,60
812,08	11206,00
812,52	11074,00
812,96	11816,50
813,40	12589,50
813,84	12014,90
814,28	11512,70
814,73	11941,60
815,17	11809,00
815,61	11622,70
816,05	11169,00
816,49	10990,70
816,93	11140,50
817,38	11930,40
817,82	11434,70
818,26	12045,10
818,70	11178,10
819,14	11814,30
819,58	12118,30
820,03	11266,40
820,47	11709,60
820,91	11194,70
821,35	11467,50
821,79	11033,40
822,23	12380,10
822,67	10971,20
823,11	11563,10
823,55	11544,40
824,00	10940,40
824,44	11551,60
824,88	11421,70
825,32	11625,90
825,76	11634,40
826,20	11035,90
826,64	11260,40
827,08	10550,50
827,52	11452,10
827,96	11878,00
828,41	12200,30
828,85	11115,60
829,29	11987,70
829,73	11657,30
830,17	11127,30
830,61	12476,60
831,05	11228,60
831,49	12920,30
831,93	12036,90
832,37	11840,60
832,81	10870,30
833,25	11393,10
833,69	11353,30
834,13	12304,90
834,57	11842,90
835,01	11409,10
835,45	11161,70
835,89	12094,10
836,33	11360,10
836,77	11579,00
837,22	11398,00
837,66	12005,30
838,10	11096,40
838,54	11154,10
838,98	11554,90
839,42	11443,20
839,86	12423,50
840,30	12821,90
840,74	11585,30
841,18	12236,40
841,62	10570,90
842,06	11141,10
842,50	10809,30
842,94	11266,10
843,37	11929,70
843,81	11508,40
844,25	11910,80
844,69	11439,60
845,13	11048,90
845,57	11840,40
846,01	11307,50
846,45	11857,30
846,89	11140,30
847,33	11026,30
847,77	11500,00
848,21	11120,70
848,65	11302,00
849,09	11224,20
849,53	11829,50
849,97	12203,30
850,41	11865,50
850,85	11331,40
851,29	11980,50
851,73	11040,30
852,16	11658,00
852,60	12119,00
853,04	11203,30
853,48	11186,50
853,92	11893,90
854,36	10864,60
854,80	11971,10
855,24	10810,30
855,68	11135,90
856,12	12072,70
856,55	12434,70
856,99	11403,80
857,43	11623,40
857,87	11501,40
858,31	10922,40
858,75	12209,70
859,19	10669,40
859,63	10994,90
860,06	11233,50
860,50	11351,90
860,94	11577,80
861,38	11812,80
861,82	11166,90
862,26	11461,70
862,70	11616,80
863,13	11121,90
863,57	11232,00
864,01	11852,90
864,45	11039,00
864,89	11411,30
865,33	11415,60
865,76	10784,10
866,20	11397,30
866,64	10670,30
867,08	11784,20
867,52	10953,90
867,96	11614,50
868,39	11374,10
868,83	11155,90
869,27	11608,20
869,71	11470,50
870,15	12392,40
870,58	12953,80
871,02	10827,90
871,46	11332,30
871,90	11394,10
872,34	11020,20
872,77	11542,70
873,21	11757,00
873,65	11400,00
874,09	12083,80
874,52	11888,80
874,96	11241,20
875,40	10954,30
875,84	12138,50
876,27	10577,30
876,71	11680,50
877,15	11372,20
877,59	11362,70
878,02	11461,20
878,46	11334,00
878,90	11587,00
879,34	11247,30
879,77	12488,20
880,21	11019,40
880,65	10899,00
881,09	11213,80
881,52	11472,90
881,96	11799,20
882,40	11343,00
882,83	11320,00
883,27	11220,10
883,71	11300,00
884,14	10925,50
884,58	11740,70
885,02	11462,30
885,46	11694,70
885,89	12019,90
886,33	11228,10
886,77	11066,50
887,20	12529,40
887,64	10958,30
888,08	10973,50
888,51	11365,00
888,95	11170,80
889,39	13310,80
889,82	10739,00
890,26	11900,40
890,70	11097,20
891,13	11764,00
891,57	11719,70
892,01	10792,20
892,44	11072,50
892,88	11282,80
893,31	10890,60
893,75	11260,60
894,19	11579,80
894,62	11258,60
895,06	11878,60
895,50	11199,10
895,93	10960,40
896,37	11496,40
896,80	11721,20
897,24	11045,50
897,68	10852,80
898,11	10983,00
898,55	11565,80
898,98	12098,30
899,42	11027,00
899,86	11020,10
900,29	11092,70
900,73	11933,90
901,16	11744,50
901,60	11223,60
902,04	12564,60
902,47	12684,80
902,91	10982,30
903,34	11239,00
903,78	12554,20
904,21	11029,10
904,65	11705,00
905,09	11107,50
905,52	11167,00
905,96	10898,10
906,39	12087,00
906,83	11453,40
907,26	11941,60
907,70	11553,40
908,13	11284,10
908,57	11822,90
909,00	12359,10
909,44	11286,60
909,87	10829,40
910,31	11608,20
910,74	11611,60
911,18	11267,20
911,62	11062,20
912,05	11235,60
912,49	11535,70
912,92	11230,10
913,36	11680,40
913,79	11697,90
914,22	11325,70
914,66	10851,50
915,09	10901,50
915,53	11196,90
915,96	11060,00
916,40	11949,90
916,83	11159,70
917,27	12022,90
917,70	11181,50
918,14	11950,10
918,57	11060,10
919,01	11330,60
919,44	11238,80
919,88	11742,10
920,31	11941,10
920,75	11478,40
921,18	12408,80
921,61	11656,80
922,05	11242,20
922,48	10895,30
922,92	10856,90
923,35	11518,40
923,79	12322,00
924,22	11780,40
924,65	10695,40
925,09	11723,70
925,52	10884,60
925,96	11933,90
926,39	12785,10
926,82	11259,60
927,26	11757,50
927,69	10776,50
928,13	12814,30
928,56	11416,10
928,99	10839,00
929,43	12010,60
929,86	11226,60
930,30	11619,90
930,73	11924,10
931,16	11174,60
931,60	11666,30
932,03	10607,50
932,46	12429,50
932,90	11974,20
933,33	13106,10
933,76	11344,50
934,20	12016,50
934,63	11980,80
935,07	11819,30
935,50	11586,90
935,93	10889,30
936,37	11268,20
936,80	11050,10
937,23	11627,00
937,67	10929,80
938,10	11829,20
938,53	11186,90
938,96	11242,90
939,40	11837,80
939,83	10988,70
940,26	11429,40
940,70	11992,90
941,13	12717,10
941,56	11121,70
942,00	12049,80
942,43	10983,80
942,86	11231,50
943,29	11846,00
943,73	10885,20
944,16	10754,50
944,59	11803,50
945,03	11739,40
945,46	11770,50
945,89	11406,80
946,32	11600,80
946,76	11567,00
947,19	12281,40
947,62	11307,10
948,05	11423,10
948,49	11745,40
948,92	10765,30
949,35	10827,70
949,78	10834,20
950,22	13098,40
950,65	12151,50
951,08	11311,20
951,51	11182,20
951,95	11681,40
952,38	10736,70
952,81	11947,40
953,24	11149,60
953,67	12605,60
954,11	10830,80
954,54	11090,30
954,97	11203,80
955,40	11116,00
955,83	11247,00
956,27	11709,80
956,70	10959,30
957,13	11772,40
957,56	13177,00
957,99	10860,10
958,43	11701,60
958,86	11539,70
959,29	11193,60
959,72	11095,90
960,15	11109,70
960,58	10516,70
961,02	11194,30
961,45	11689,60
961,88	11667,40
962,31	12007,30
962,74	11785,10
963,17	11061,90
963,61	11451,30
964,04	11177,00
964,47	11511,80
964,90	11345,00
965,33	11089,90
965,76	11966,60
966,19	11170,00
966,62	11313,60
967,06	11789,10
967,49	11061,10
967,92	11163,50
968,35	12114,20
968,78	13915,10
969,21	11850,10
969,64	11312,90
970,07	11684,40
970,50	10957,30
970,93	11128,40
971,37	11669,50
971,80	11149,80
972,23	11387,10
972,66	10870,80
973,09	11053,00
973,52	11222,20
973,95	11647,20
974,38	11269,10
974,81	11812,40
975,24	11524,40
975,67	11056,50
976,10	11162,70
976,53	11081,20
976,96	11475,70
977,39	10907,50
977,82	11810,60
978,26	11467,70
978,69	11230,80
979,12	11248,50
979,55	11215,10
979,98	11953,40
980,41	11745,30
980,84	11118,20
981,27	11638,80
981,70	12045,60
982,13	11362,30
982,56	11386,90
982,99	11158,40
983,42	11259,50
983,85	11045,10
984,28	11940,50
984,71	11831,60
985,14	10821,00
985,57	10551,30
986,00	11341,80
986,43	11777,40
986,86	11231,50
987,29	11018,10
987,72	11627,10
988,15	11308,60
988,57	11477,40
989,00	11315,40
989,43	11520,60
989,86	11377,80
990,29	11266,30
990,72	11540,80
991,15	11377,70
991,58	11564,00
992,01	12464,30
992,44	11225,40
992,87	11021,60
993,30	11315,10
993,73	10982,90
994,16	11138,00
994,59	11674,30
995,02	11737,90
995,44	11497,00
995,87	11507,90
996,30	10688,60
996,73	10843,80
997,16	10491,40
997,59	12011,80
998,02	11848,00
998,45	11090,40
998,88	11524,40
999,31	10942,60
999,73	12336,50
1000,16	11386,10
1000,59	11424,10
1001,02	12095,10
1001,45	10962,90
1001,88	11447,90
1002,31	11774,00
1002,74	11395,50
1003,16	11550,20
1003,59	11348,10
1004,02	11754,60
1004,45	10927,80
1004,88	11602,20
1005,31	11466,80
1005,73	12249,80
1006,16	11224,10
1006,59	10773,00
1007,02	11633,20
1007,45	11402,50
1007,88	11050,30
1008,30	10801,40
1008,73	11246,40
1009,16	11135,20
1009,59	13632,80
1010,02	12056,50
1010,44	11918,90
1010,87	11581,90
1011,30	11741,30
1011,73	11997,00
1012,16	11330,60
1012,58	11838,00
1013,01	11369,90
1013,44	11577,00
1013,87	11694,20
1014,30	10902,00
1014,72	12185,80
1015,15	10733,60
1015,58	11809,00
1016,01	11058,10
1016,43	11464,90
1016,86	10867,90
1017,29	11661,10
1017,72	11236,20
1018,14	25302,30
1018,57	11070,00
1019,00	10681,10
1019,43	13167,50
1019,85	12110,40
1020,28	11825,40
1020,71	11260,30
1021,14	11402,00
1021,56	11542,20
1021,99	11571,00
1022,42	11791,80
1022,84	11397,50
1023,27	13719,20
1023,70	12142,80
1024,13	12095,30
1024,55	11781,90
1024,98	11560,50
1025,41	11681,20
1025,83	11811,40
1026,26	11047,10
1026,69	10960,90
1027,11	12789,10
1027,54	11833,90
1027,97	11666,70
1028,39	11480,80
1028,82	11581,60
1029,25	11084,90
1029,67	12868,40
1030,10	11485,60
1030,53	11428,50
1030,95	11558,50
1031,38	12238,10
1031,81	10837,30
1032,23	11515,10
1032,66	11891,30
1033,09	11210,20
1033,51	12001,40
1033,94	10993,80
1034,37	11024,20
1034,79	11639,90
1035,22	11985,90
1035,64	11208,60
1036,07	12446,60
1036,50	11124,10
1036,92	11113,30
1037,35	11530,30
1037,77	10788,80
1038,20	11887,50
1038,63	11995,60
1039,05	11863,30
1039,48	12071,50
1039,90	12456,90
1040,33	11333,10
1040,76	11323,50
1041,18	11662,80
1041,61	11282,70
1042,03	12204,30
1042,46	12214,50
1042,88	11784,60
1043,31	12000,20
1043,74	11478,40
1044,16	12020,50
1044,59	11019,40
1045,01	11400,00
1045,44	11229,90
1045,86	10956,60
1046,29	11472,40
1046,71	11818,00
1047,14	11074,50
1047,56	11698,50
1047,99	11956,10
1048,42	11016,40
1048,84	12058,40
1049,27	11828,50
1049,69	11928,40
1050,12	11339,90
1050,54	11409,20
1050,97	11778,40
1051,39	12028,10
1051,82	12261,60
1052,24	12144,90
1052,67	11606,70
1053,09	11763,70
1053,52	10507,60
1053,94	11533,90
1054,37	10672,40
1054,79	11347,50
1055,22	11110,20
1055,64	11718,50
1056,06	11854,20
1056,49	12652,40
1056,91	12157,80
1057,34	12136,20
1057,76	11544,50
1058,19	13929,60
1058,61	11098,60
1059,04	11781,50
1059,46	11869,90
1059,89	11316,70
1060,31	11393,40
1060,73	11257,60
1061,16	12024,60
1061,58	11573,40
1062,01	11280,10
1062,43	12022,10
1062,86	12266,10
1063,28	11628,80
1063,70	11418,70
1064,13	11165,80
1064,55	11973,80
1064,98	12051,40
1065,40	11309,80
1065,82	11084,20
1066,25	10881,10
1066,67	12031,40
1067,10	11489,10
1067,52	11458,00
1067,94	11698,80
1068,37	11312,20
1068,79	12607,90
1069,21	11426,10
1069,64	11218,90
1070,06	10823,80
1070,48	12029,50
1070,91	12153,60
1071,33	12066,70
1071,76	11313,20
1072,18	11876,80
1072,60	11289,20
1073,03	10983,30
1073,45	10787,50
1073,87	11853,40
1074,30	11299,10
1074,72	10916,40
1075,14	11210,10
1075,57	11309,60
1075,99	11537,70
1076,41	11204,10
1076,84	11053,90
1077,26	11441,30
1077,68	11958,60
1078,10	11256,00
1078,53	11895,90
1078,95	12320,90
1079,37	10594,80
1079,80	11601,00
1080,22	11222,80
1080,64	11429,90
1081,06	11775,70
1081,49	11406,40
1081,91	11295,30
1082,33	11670,20
1082,76	11376,70
1083,18	11316,80
1083,60	11447,00
1084,02	11547,60
1084,45	12073,00
1084,87	11461,50
1085,29	11333,10
1085,71	12151,90
1086,14	11072,10
1086,56	11267,20
1086,98	11636,80
1087,40	10687,60
1087,83	11834,90
1088,25	23983,30
1088,67	11645,50
1089,09	11114,30
1089,51	11203,80
1089,94	11316,50
1090,36	12060,90
1090,78	11384,50
1091,20	10914,50
1091,62	11270,20
1092,05	11331,50
1092,47	11049,30
1092,89	11382,40
1093,31	11201,00
1093,73	11412,90
1094,16	11310,00
1094,58	11456,30
1095,00	11330,60
1095,42	11473,70
1095,84	11150,90
1096,26	11497,40
1096,69	11666,70
1097,11	10918,90
1097,53	11360,00
1097,95	11101,80
1098,37	11775,40
1098,79	11725,20
1099,22	11647,10
1099,64	11333,60
1100,06	11278,90
1100,48	11039,10
1100,90	11284,60
1101,32	11166,30
1101,74	11432,40
1102,16	10913,80
1102,59	11073,20
1103,01	11283,80
1103,43	11361,60
1103,85	11524,30
1104,27	11141,50
1104,69	12326,60
1105,11	10380,50
1105,53	11495,30
1105,95	11229,20
1106,38	11030,10
1106,80	11335,70
1107,22	10404,40
1107,64	10702,50
1108,06	11865,00
1108,48	10676,10
1108,90	11590,00
1109,32	11462,30
1109,74	11518,10
1110,16	10541,00
1110,58	11072,00
1111,00	10618,30
1111,42	10991,20
1111,84	10638,30
1112,26	10719,60
1112,68	10512,40
1113,11	10963,50
1113,53	10691,00
1113,95	10680,90
1114,37	11168,20
1114,79	11320,50
1115,21	10823,90
1115,63	11019,30
1116,05	10885,40
1116,47	11300,70
1116,89	11056,80
1117,31	10915,00
1117,73	10272,40
1118,15	2019,50
1118,57	2210,30
1118,99	2199,60
1119,41	2198,10
>>>>>End Processed Spectral Data<<<<<
