SpectraSuite Data File
++++++++++++++++++++++++++++++++++++
Date: Thu Feb 25 13:36:22 EET 2016
User: OO Maya
Dark Spectrum Present: No
Reference Spectrum Present: No
Number of Sampled Component Spectra: 1
Spectrometers: MAYP11278
Integration Time (usec): 400000 (MAYP11278)
Spectra Averaged: 20 (MAYP11278)
Boxcar Smoothing: 0 (MAYP11278)
Correct for Electrical Dark: No (MAYP11278)
Strobe/Lamp Enabled: No (MAYP11278)
Correct for Detector Non-linearity: No (MAYP11278)
Correct for Stray Light: No (MAYP11278)
Number of Pixels in Processed Spectrum: 2068
>>>>>Begin Processed Spectral Data<<<<<
187,82	2303,90
188,30	2219,95
188,78	2192,00
189,26	2194,05
189,73	2781,20
190,21	2820,80
190,69	2833,60
191,17	2838,75
191,64	2873,65
192,12	2836,00
192,60	2819,00
193,07	2800,05
193,55	2838,45
194,03	2832,65
194,51	2845,85
194,98	2825,00
195,46	2868,25
195,94	2819,30
196,42	2835,00
196,89	2938,35
197,37	2832,80
197,85	2808,95
198,32	2818,80
198,80	2802,65
199,28	2848,50
199,76	2865,35
200,23	2826,25
200,71	2828,95
201,19	2869,65
201,66	2866,50
202,14	2866,55
202,62	2808,75
203,09	2863,05
203,57	2813,90
204,05	2877,35
204,53	2893,80
205,00	2824,50
205,48	2822,85
205,96	2902,15
206,43	2833,10
206,91	2854,70
207,39	2955,20
207,86	2856,05
208,34	2876,25
208,82	2832,80
209,29	2880,00
209,77	2862,80
210,25	2846,05
210,72	2838,20
211,20	2865,20
211,68	2852,45
212,15	2832,75
212,63	2920,15
213,11	2875,85
213,58	2841,80
214,06	2936,75
214,53	2859,35
215,01	2908,05
215,49	2865,35
215,96	2870,30
216,44	2876,00
216,92	2871,70
217,39	2829,25
217,87	2853,60
218,35	2892,25
218,82	2805,10
219,30	2826,25
219,77	2834,30
220,25	2849,10
220,73	2947,85
221,20	2836,15
221,68	2888,20
222,15	2828,95
222,63	2888,25
223,11	2838,40
223,58	2884,85
224,06	2856,80
224,53	2839,70
225,01	2819,20
225,49	2855,50
225,96	2836,30
226,44	2855,80
226,91	2889,65
227,39	2847,35
227,87	2898,20
228,34	2885,35
228,82	2882,60
229,29	2853,75
229,77	2854,70
230,24	2841,40
230,72	2887,65
231,20	2906,60
231,67	2861,35
232,15	2859,55
232,62	2826,40
233,10	2858,80
233,57	2873,55
234,05	3008,35
234,53	2870,30
235,00	2846,00
235,48	2846,00
235,95	2826,05
236,43	2888,35
236,90	2942,65
237,38	2837,80
237,85	2864,05
238,33	2861,25
238,80	2869,25
239,28	2852,85
239,75	2810,20
240,23	2881,70
240,71	2910,20
241,18	2866,35
241,66	2852,20
242,13	2895,65
242,61	2906,90
243,08	2815,15
243,56	2828,10
244,03	2882,20
244,51	2917,15
244,98	2844,70
245,46	2910,85
245,93	4981,65
246,41	2781,55
246,88	2866,35
247,36	2862,80
247,83	2866,00
248,31	2873,20
248,78	2798,50
249,26	2857,15
249,73	2901,85
250,21	2880,45
250,68	2915,90
251,16	2864,50
251,63	2945,95
252,10	2914,85
252,58	2846,25
253,05	2904,55
253,53	2863,40
254,00	2848,85
254,48	2868,30
254,95	2877,65
255,43	2896,20
255,90	2837,75
256,38	2879,25
256,85	2878,80
257,33	2899,40
257,80	2984,60
258,27	2871,50
258,75	2851,80
259,22	2873,60
259,70	2897,80
260,17	2934,25
260,65	2862,40
261,12	2841,15
261,59	2914,70
262,07	2839,05
262,54	2877,20
263,02	2865,70
263,49	2811,15
263,97	2893,95
264,44	2907,05
264,91	2848,70
265,39	2867,80
265,86	2886,85
266,34	2890,60
266,81	2847,30
267,28	2855,85
267,76	2881,30
268,23	2878,00
268,71	2806,15
269,18	2831,75
269,65	2846,95
270,13	2894,00
270,60	2917,30
271,08	2858,40
271,55	2867,20
272,02	2817,80
272,50	2824,55
272,97	2795,60
273,44	2871,55
273,92	3006,10
274,39	2888,55
274,87	2910,60
275,34	2848,85
275,81	2854,70
276,29	2894,95
276,76	2894,45
277,23	2817,90
277,71	2861,50
278,18	2830,95
278,65	3040,10
279,13	2852,00
279,60	2846,10
280,07	3028,45
280,55	2910,25
281,02	2994,95
281,50	2837,70
281,97	2917,70
282,44	2852,55
282,91	2863,00
283,39	2878,80
283,86	2841,80
284,33	2824,20
284,81	2899,80
285,28	2866,40
285,75	2870,05
286,23	2886,35
286,70	2819,75
287,17	2882,90
287,65	2932,20
288,12	2849,10
288,59	2896,50
289,07	2797,15
289,54	2930,45
290,01	2833,00
290,48	2875,15
290,96	2842,95
291,43	2889,75
291,90	2952,45
292,38	2841,00
292,85	2903,70
293,32	2845,85
293,79	2893,55
294,27	2881,60
294,74	2843,35
295,21	2882,95
295,69	2883,55
296,16	2950,40
296,63	2925,80
297,10	2896,15
297,58	2890,40
298,05	2883,65
298,52	2852,30
298,99	2935,05
299,47	2848,50
299,94	2885,95
300,41	2851,65
300,88	2906,70
301,36	2904,85
301,83	2897,15
302,30	2821,10
302,77	2892,45
303,25	2897,50
303,72	2844,15
304,19	2855,25
304,66	2834,40
305,13	2876,80
305,61	2880,20
306,08	2872,50
306,55	2895,35
307,02	2848,95
307,49	2848,70
307,97	2883,55
308,44	2858,35
308,91	2902,55
309,38	2906,70
309,86	2890,00
310,33	2869,65
310,80	2887,70
311,27	2851,40
311,74	2899,85
312,21	2868,45
312,69	2958,15
313,16	2847,75
313,63	2864,50
314,10	2873,45
314,57	2847,15
315,05	2841,00
315,52	2902,05
315,99	2901,85
316,46	2878,85
316,93	2895,30
317,40	2884,30
317,88	2992,65
318,35	2869,60
318,82	2856,65
319,29	2818,80
319,76	2886,40
320,23	2945,10
320,70	2905,85
321,18	2870,35
321,65	2806,80
322,12	2832,95
322,59	2949,40
323,06	2855,90
323,53	2975,50
324,00	2830,35
324,48	2877,30
324,95	2856,40
325,42	2851,65
325,89	2854,55
326,36	2858,30
326,83	2893,80
327,30	2888,80
327,77	2887,50
328,24	2876,00
328,72	2860,80
329,19	2849,50
329,66	2852,40
330,13	2843,70
330,60	2908,20
331,07	2891,15
331,54	2954,15
332,01	2838,55
332,48	2957,45
332,95	2901,05
333,43	2901,15
333,90	2924,70
334,37	2871,05
334,84	2894,40
335,31	3025,55
335,78	2837,40
336,25	2865,75
336,72	2860,85
337,19	2874,15
337,66	2850,45
338,13	2863,85
338,60	2937,50
339,07	2905,20
339,54	2834,40
340,01	2846,70
340,49	2831,90
340,96	2887,20
341,43	2923,75
341,90	2847,00
342,37	2879,90
342,84	2904,25
343,31	2881,05
343,78	2852,45
344,25	2859,45
344,72	2843,80
345,19	2872,95
345,66	2895,80
346,13	2851,80
346,60	2843,35
347,07	2938,20
347,54	2843,95
348,01	2924,20
348,48	2874,00
348,95	2813,00
349,42	2871,90
349,89	2909,75
350,36	2868,65
350,83	2845,45
351,30	2874,25
351,77	2946,00
352,24	2883,10
352,71	2864,00
353,18	2876,65
353,65	2898,30
354,12	2886,60
354,59	2892,05
355,06	2875,05
355,53	2939,00
356,00	2844,20
356,47	2933,45
356,94	2830,20
357,41	3003,25
357,88	2900,15
358,35	2828,50
358,82	2846,05
359,28	2854,20
359,75	2851,75
360,22	2900,15
360,69	2928,50
361,16	2856,00
361,63	2869,65
362,10	2872,70
362,57	2860,20
363,04	2879,10
363,51	2967,35
363,98	2896,05
364,45	2845,15
364,92	2891,60
365,39	2847,25
365,86	2826,95
366,32	2880,40
366,79	2865,75
367,26	3990,10
367,73	2792,75
368,20	2831,50
368,67	2898,90
369,14	2825,10
369,61	2906,45
370,08	2880,60
370,55	2849,15
371,02	3483,60
371,48	2875,45
371,95	2842,75
372,42	2811,85
372,89	2865,50
373,36	2874,55
373,83	2824,70
374,30	2832,75
374,77	2876,85
375,23	2814,35
375,70	2927,35
376,17	2851,35
376,64	2822,40
377,11	2825,05
377,58	2882,15
378,05	2868,45
378,51	2858,95
378,98	2864,90
379,45	2862,20
379,92	2891,20
380,39	2927,15
380,86	2866,00
381,33	2933,35
381,79	2920,15
382,26	2817,20
382,73	2878,10
383,20	2866,40
383,67	2909,05
384,14	2877,60
384,60	3093,65
385,07	2868,90
385,54	2853,25
386,01	2858,65
386,48	2942,45
386,94	2829,90
387,41	2820,40
387,88	2906,80
388,35	2883,35
388,82	2921,65
389,28	2842,75
389,75	2896,65
390,22	2882,30
390,69	2883,85
391,16	2878,55
391,62	2870,85
392,09	2880,05
392,56	2860,15
393,03	2857,25
393,50	2972,00
393,96	2863,95
394,43	2918,90
394,90	2834,90
395,37	2904,65
395,83	3064,70
396,30	2820,90
396,77	2889,40
397,24	2908,85
397,70	2828,35
398,17	2864,55
398,64	2851,95
399,11	2832,10
399,57	2909,05
400,04	2822,85
400,51	2867,60
400,98	2844,75
401,44	2889,05
401,91	2871,85
402,38	2868,65
402,84	2837,40
403,31	2928,25
403,78	2864,85
404,25	2927,40
404,71	2933,45
405,18	2910,90
405,65	2838,25
406,12	2894,00
406,58	2880,95
407,05	2950,35
407,52	2870,00
407,98	2881,60
408,45	2885,85
408,92	2828,35
409,38	2917,70
409,85	2832,45
410,32	2911,10
410,78	2832,45
411,25	2916,95
411,72	2854,70
412,18	2800,25
412,65	2885,10
413,12	2848,25
413,59	2884,65
414,05	2894,60
414,52	2937,60
414,98	2857,60
415,45	2935,35
415,92	2880,20
416,38	2866,10
416,85	2950,35
417,32	2885,50
417,78	2858,20
418,25	2876,75
418,72	2872,60
419,18	2903,60
419,65	2835,75
420,12	2900,35
420,58	2832,85
421,05	2868,95
421,51	2842,15
421,98	2887,00
422,45	2848,35
422,91	2861,45
423,38	2884,50
423,85	2895,65
424,31	2863,10
424,78	2898,55
425,24	2866,75
425,71	2928,15
426,18	2852,95
426,64	2924,25
427,11	2899,05
427,57	2902,55
428,04	2825,70
428,51	2905,60
428,97	2886,30
429,44	2861,40
429,90	2875,35
430,37	3004,80
430,83	2831,10
431,30	2861,50
431,77	2925,55
432,23	2919,20
432,70	2860,40
433,16	2843,65
433,63	2880,25
434,09	2854,55
434,56	2895,75
435,03	2822,90
435,49	2897,65
435,96	2880,00
436,42	2822,50
436,89	2901,85
437,35	2875,10
437,82	2875,95
438,28	2842,20
438,75	2856,80
439,21	3038,80
439,68	2884,20
440,14	2908,25
440,61	2922,35
441,07	2835,35
441,54	2858,20
442,00	2977,95
442,47	2822,55
442,94	2875,50
443,40	2878,00
443,87	2818,60
444,33	2937,90
444,80	2879,80
445,26	2868,30
445,73	2873,05
446,19	2882,15
446,65	2854,80
447,12	2876,10
447,58	2849,95
448,05	2840,70
448,51	2893,65
448,98	2892,70
449,44	2861,40
449,91	2833,60
450,37	2832,25
450,84	2848,45
451,30	2878,05
451,77	2904,90
452,23	2833,25
452,70	2906,30
453,16	2867,50
453,62	2855,90
454,09	2871,05
454,55	2887,75
455,02	2849,30
455,48	2867,30
455,95	2900,40
456,41	2849,00
456,88	2916,45
457,34	2856,15
457,80	2859,85
458,27	2829,80
458,73	2880,00
459,20	2873,60
459,66	2965,20
460,13	2848,55
460,59	2829,35
461,05	2935,20
461,52	2898,25
461,98	2845,30
462,45	2822,20
462,91	2908,85
463,37	2854,35
463,84	2878,15
464,30	2871,80
464,76	2829,45
465,23	2848,25
465,69	2908,70
466,16	2868,80
466,62	2888,45
467,08	2888,30
467,55	2862,80
468,01	2884,20
468,48	2882,55
468,94	2870,60
469,40	2825,40
469,87	2877,50
470,33	2883,10
470,79	2854,55
471,26	2850,25
471,72	2839,00
472,18	2848,50
472,65	2854,65
473,11	2926,50
473,57	2869,60
474,04	2839,70
474,50	2855,55
474,96	2827,65
475,43	2884,30
475,89	2863,50
476,35	2885,95
476,82	2867,90
477,28	2861,85
477,74	2938,10
478,21	2876,20
478,67	2910,15
479,13	2841,10
479,59	2943,90
480,06	2883,75
480,52	2882,30
480,98	2842,10
481,45	2865,75
481,91	2872,45
482,37	2829,95
482,84	2862,25
483,30	2818,65
483,76	2853,50
484,22	2933,45
484,69	2881,45
485,15	2867,30
485,61	2813,65
486,07	2857,80
486,54	2806,05
487,00	2883,45
487,46	2817,60
487,92	2822,10
488,39	2847,20
488,85	2879,10
489,31	2867,80
489,77	2904,70
490,24	2823,80
490,70	2862,35
491,16	2819,60
491,62	2837,80
492,09	2800,85
492,55	2907,90
493,01	2883,90
493,47	2867,35
493,94	2851,45
494,40	2852,40
494,86	2835,85
495,32	2827,90
495,78	2867,15
496,25	2846,20
496,71	2860,85
497,17	2952,05
497,63	2912,55
498,09	2837,70
498,56	2870,95
499,02	2845,50
499,48	2970,50
499,94	2862,95
500,40	2845,75
500,87	2864,90
501,33	2838,10
501,79	2887,65
502,25	2860,25
502,71	3142,45
503,17	2852,15
503,64	2884,30
504,10	2854,60
504,56	2879,25
505,02	2875,30
505,48	2830,55
505,94	2864,55
506,40	2902,15
506,87	2856,75
507,33	2885,65
507,79	2877,45
508,25	2842,60
508,71	2829,80
509,17	2806,00
509,63	2840,15
510,10	2863,80
510,56	2838,30
511,02	2912,65
511,48	2916,40
511,94	2834,90
512,40	2812,85
512,86	2842,10
513,32	2883,40
513,78	2797,10
514,25	2905,45
514,71	2943,05
515,17	2800,10
515,63	2868,80
516,09	2908,55
516,55	2899,30
517,01	2981,50
517,47	2885,15
517,93	2861,85
518,39	3040,70
518,85	2859,05
519,32	2840,75
519,78	2820,95
520,24	2828,00
520,70	2880,00
521,16	2885,95
521,62	2895,05
522,08	2865,35
522,54	2818,50
523,00	2941,40
523,46	2899,75
523,92	2851,05
524,38	2974,05
524,84	2890,20
525,30	2898,00
525,76	2915,45
526,22	2875,20
526,68	2867,85
527,14	2859,75
527,60	2850,30
528,06	2894,80
528,52	2893,45
528,98	2851,15
529,44	2829,15
529,90	2886,65
530,36	2898,55
530,82	2825,75
531,28	2909,40
531,74	2864,50
532,20	2862,35
532,66	2865,70
533,12	2875,50
533,58	2847,20
534,04	2825,45
534,50	2858,25
534,96	2839,05
535,42	2873,15
535,88	2846,20
536,34	2890,15
536,80	2830,45
537,26	2880,05
537,72	2857,75
538,18	2857,70
538,64	2937,95
539,10	2893,30
539,56	3094,75
540,02	2816,90
540,48	2939,70
540,94	2871,60
541,40	2824,05
541,86	2889,45
542,32	2879,60
542,78	2842,90
543,24	2981,35
543,69	2810,55
544,15	2970,25
544,61	2894,40
545,07	2848,15
545,53	2848,30
545,99	2897,05
546,45	2869,25
546,91	2890,00
547,37	2889,90
547,83	2877,35
548,29	2862,45
548,74	2857,35
549,20	2831,30
549,66	2964,45
550,12	2851,45
550,58	2831,25
551,04	2882,25
551,50	2863,05
551,96	2945,20
552,42	2873,65
552,87	2827,25
553,33	2890,70
553,79	2849,85
554,25	2827,85
554,71	2881,25
555,17	2866,00
555,63	2943,60
556,08	2868,60
556,54	2918,05
557,00	2816,00
557,46	2878,05
557,92	2964,10
558,38	2849,80
558,83	2859,95
559,29	2835,80
559,75	2836,05
560,21	2831,55
560,67	2860,50
561,13	2855,70
561,58	2849,30
562,04	2849,90
562,50	2835,70
562,96	2863,05
563,42	2902,95
563,87	2832,70
564,33	2867,65
564,79	2847,45
565,25	2857,05
565,71	2867,05
566,16	2912,05
566,62	2852,70
567,08	2837,90
567,54	2865,55
568,00	2906,55
568,45	2852,05
568,91	2858,20
569,37	2894,25
569,83	2860,85
570,28	2856,60
570,74	2889,20
571,20	2894,00
571,66	2864,75
572,11	2881,20
572,57	2882,40
573,03	2835,50
573,49	2837,85
573,94	2874,65
574,40	2924,40
574,86	2897,35
575,32	2823,70
575,77	2872,20
576,23	2793,85
576,69	2909,75
577,15	2851,40
577,60	2845,95
578,06	2823,50
578,52	2923,05
578,97	2892,75
579,43	2837,25
579,89	2883,50
580,34	2872,65
580,80	2861,50
581,26	2865,40
581,72	2872,65
582,17	2856,80
582,63	2819,00
583,09	2847,60
583,54	2871,10
584,00	2853,05
584,46	2886,60
584,91	2838,80
585,37	2980,95
585,83	2848,35
586,28	2854,50
586,74	2861,85
587,20	2852,35
587,65	2906,60
588,11	2818,55
588,57	2885,50
589,02	2856,95
589,48	2845,35
589,94	2879,30
590,39	2892,40
590,85	2843,35
591,30	2810,55
591,76	2917,00
592,22	2846,85
592,67	2875,15
593,13	2874,20
593,59	2891,65
594,04	2862,60
594,50	2864,00
594,95	2919,40
595,41	2851,75
595,87	2826,85
596,32	2929,20
596,78	2895,35
597,23	2917,45
597,69	2872,50
598,15	2817,75
598,60	2867,15
599,06	2916,90
599,51	2841,85
599,97	2888,85
600,43	2913,70
600,88	2878,65
601,34	2888,70
601,79	2822,45
602,25	3002,85
602,70	2833,15
603,16	2866,85
603,61	2832,35
604,07	2802,20
604,53	2889,05
604,98	2839,60
605,44	2881,85
605,89	2867,70
606,35	2810,65
606,80	2857,30
607,26	2854,10
607,71	2871,95
608,17	2887,80
608,62	2865,00
609,08	2974,95
609,53	2895,85
609,99	2855,60
610,44	2848,20
610,90	2869,55
611,35	2816,70
611,81	2948,40
612,26	2892,10
612,72	2862,10
613,17	2997,00
613,63	2817,95
614,08	2817,80
614,54	2822,60
614,99	2821,65
615,45	2851,30
615,90	2860,20
616,36	2822,40
616,81	2856,80
617,27	2857,85
617,72	2893,75
618,18	2838,20
618,63	2846,55
619,09	2855,65
619,54	2889,30
619,99	2844,00
620,45	2897,15
620,90	2907,70
621,36	2848,05
621,81	2901,25
622,27	2917,85
622,72	2907,05
623,18	2842,00
623,63	2829,90
624,08	2904,30
624,54	2823,35
624,99	2846,35
625,45	2871,85
625,90	2822,50
626,35	2853,40
626,81	2867,50
627,26	2833,30
627,72	2888,90
628,17	2896,90
628,62	2804,15
629,08	2864,45
629,53	2860,90
629,99	2827,90
630,44	2885,55
630,89	2848,85
631,35	2893,95
631,80	2878,25
632,26	2903,80
632,71	2829,90
633,16	2852,55
633,62	2827,15
634,07	2841,85
634,52	2823,85
634,98	2848,65
635,43	2841,00
635,88	2806,25
636,34	2857,55
636,79	2855,25
637,24	2829,00
637,70	2889,25
638,15	2897,95
638,60	2841,35
639,06	2861,35
639,51	2829,70
639,96	2811,30
640,42	2865,05
640,87	2900,85
641,32	2813,35
641,78	2838,60
642,23	2849,25
642,68	2812,90
643,14	2832,95
643,59	2887,25
644,04	2836,15
644,49	2817,30
644,95	2846,30
645,40	2820,45
645,85	2859,75
646,31	2856,85
646,76	2878,70
647,21	2889,10
647,66	2867,05
648,12	2869,35
648,57	2817,90
649,02	2907,40
649,47	2881,00
649,93	3046,45
650,38	2816,80
650,83	2818,25
651,28	2838,30
651,74	2866,05
652,19	2825,25
652,64	2857,00
653,09	2827,00
653,55	2831,20
654,00	2858,15
654,45	2873,10
654,90	2843,45
655,35	2815,55
655,81	2884,15
656,26	2831,10
656,71	2853,90
657,16	2881,85
657,62	2884,60
658,07	2833,65
658,52	2856,75
658,97	2822,40
659,42	3064,40
659,88	2841,35
660,33	2909,20
660,78	2855,05
661,23	2825,05
661,68	2851,00
662,13	2827,75
662,59	2798,05
663,04	2871,65
663,49	2841,00
663,94	2837,35
664,39	2847,15
664,84	2819,65
665,30	2862,70
665,75	2813,60
666,20	2870,50
666,65	2863,90
667,10	2979,80
667,55	2911,65
668,00	2820,45
668,46	2871,15
668,91	2823,90
669,36	2952,35
669,81	2786,65
670,26	2837,15
670,71	2919,70
671,16	2863,20
671,61	2926,25
672,06	2971,20
672,52	2854,20
672,97	2864,75
673,42	2904,35
673,87	3009,55
674,32	2859,70
674,77	2882,95
675,22	2810,75
675,67	2817,90
676,12	2862,65
676,57	2845,10
677,02	2850,00
677,47	2851,50
677,93	2971,70
678,38	2828,85
678,83	2839,05
679,28	2868,45
679,73	2834,05
680,18	2857,55
680,63	2855,50
681,08	2785,05
681,53	2787,00
681,98	2847,50
682,43	2859,85
682,88	2883,10
683,33	2879,30
683,78	2873,10
684,23	2903,95
684,68	2866,95
685,13	2863,60
685,58	2862,90
686,03	2847,30
686,48	2823,45
686,93	2854,70
687,38	2833,75
687,83	2861,30
688,28	2843,00
688,73	2978,70
689,18	2885,65
689,63	2797,10
690,08	2844,15
690,53	2845,35
690,98	2800,85
691,43	2846,30
691,88	2803,60
692,33	2860,20
692,78	2844,95
693,23	2896,35
693,68	2876,35
694,13	2850,45
694,58	2862,95
695,03	3057,40
695,48	2868,10
695,93	2864,65
696,38	2940,35
696,83	2849,75
697,28	2841,90
697,72	2874,80
698,17	2824,95
698,62	2885,70
699,07	2895,40
699,52	2836,55
699,97	2839,85
700,42	2893,55
700,87	2897,35
701,32	3040,70
701,77	2813,55
702,22	2925,00
702,67	2833,10
703,11	2839,50
703,56	2861,00
704,01	2846,95
704,46	2838,50
704,91	2914,45
705,36	2904,45
705,81	2886,90
706,26	2814,80
706,70	2882,75
707,15	2859,95
707,60	2845,90
708,05	2875,20
708,50	2900,30
708,95	2865,60
709,40	2844,50
709,84	2864,85
710,29	2853,45
710,74	2843,75
711,19	2881,10
711,64	2857,90
712,09	2859,95
712,53	2822,30
712,98	2945,95
713,43	2859,15
713,88	2867,70
714,33	2930,30
714,78	2896,25
715,22	2850,30
715,67	2865,45
716,12	2838,70
716,57	2848,80
717,02	2814,50
717,46	2804,85
717,91	2873,60
718,36	2934,60
718,81	2822,65
719,26	2821,65
719,70	2862,05
720,15	2844,00
720,60	2825,65
721,05	2863,95
721,49	2828,50
721,94	2876,65
722,39	2849,30
722,84	2812,70
723,28	2793,85
723,73	2864,20
724,18	2795,65
724,63	2877,10
725,07	2805,35
725,52	2855,30
725,97	2850,10
726,42	2857,25
726,86	2947,90
727,31	2814,85
727,76	2907,90
728,21	2879,65
728,65	2843,55
729,10	2902,85
729,55	2832,60
729,99	2888,50
730,44	2812,80
730,89	2858,35
731,33	2876,05
731,78	2869,80
732,23	2865,70
732,68	2833,15
733,12	2885,50
733,57	2872,45
734,02	2826,85
734,46	2893,50
734,91	2874,25
735,36	2853,00
735,80	2983,50
736,25	2825,95
736,70	2866,70
737,14	2896,60
737,59	2880,80
738,04	2854,55
738,48	2836,45
738,93	2868,60
739,37	2811,70
739,82	2909,60
740,27	2885,45
740,71	2825,20
741,16	2875,15
741,61	2883,20
742,05	2852,30
742,50	2857,60
742,94	2816,20
743,39	2830,20
743,84	2849,90
744,28	2905,65
744,73	2896,50
745,18	2874,35
745,62	2898,30
746,07	2915,20
746,51	2783,65
746,96	2817,45
747,40	2814,90
747,85	2866,65
748,30	2856,45
748,74	2840,45
749,19	2879,70
749,63	2987,05
750,08	2858,80
750,52	2847,45
750,97	2809,60
751,42	2833,15
751,86	2840,40
752,31	2849,45
752,75	2948,55
753,20	2828,65
753,64	2844,60
754,09	2811,05
754,53	2839,40
754,98	2807,20
755,42	2849,85
755,87	2855,40
756,31	2912,00
756,76	2840,75
757,20	2913,00
757,65	2864,00
758,09	2850,55
758,54	2849,70
758,98	2851,00
759,43	2812,80
759,87	2837,40
760,32	2871,65
760,76	2857,35
761,21	2883,00
761,65	2911,65
762,10	2838,65
762,54	2800,95
762,99	2840,20
763,43	2887,60
763,88	2853,25
764,32	2817,25
764,77	2836,25
765,21	2863,35
765,66	2815,70
766,10	2815,65
766,54	2831,80
766,99	2852,65
767,43	2864,20
767,88	2874,80
768,32	2882,45
768,77	2850,45
769,21	2942,55
769,66	2815,80
770,10	2849,55
770,54	2830,45
770,99	2816,25
771,43	2878,65
771,88	2854,95
772,32	2866,85
772,76	2799,70
773,21	2837,20
773,65	2840,70
774,10	2790,15
774,54	2857,00
774,98	2825,25
775,43	2861,40
775,87	2856,95
776,31	2817,10
776,76	2841,60
777,20	2843,90
777,65	2875,25
778,09	2885,55
778,53	2833,60
778,98	2861,15
779,42	2982,90
779,86	2919,30
780,31	2862,10
780,75	2896,85
781,19	2877,90
781,64	2822,15
782,08	2861,85
782,52	2817,50
782,97	2844,50
783,41	2886,05
783,85	2882,50
784,30	2847,30
784,74	2840,75
785,18	2845,60
785,63	2822,40
786,07	2882,35
786,51	2898,90
786,95	2904,35
787,40	2817,00
787,84	2826,25
788,28	2862,15
788,73	2972,20
789,17	2840,50
789,61	2830,00
790,05	2858,60
790,50	2820,75
790,94	2827,10
791,38	2899,15
791,82	2839,10
792,27	2861,45
792,71	2830,05
793,15	3048,50
793,59	2897,80
794,04	2857,00
794,48	2863,45
794,92	2858,25
795,36	2813,75
795,81	2872,80
796,25	2854,80
796,69	2855,95
797,13	2834,00
797,57	2808,50
798,02	2854,85
798,46	2902,35
798,90	2872,70
799,34	2825,10
799,79	2928,60
800,23	2871,45
800,67	2819,60
801,11	2869,85
801,55	2865,45
801,99	2822,40
802,44	2898,85
802,88	2933,80
803,32	2884,65
803,76	2868,50
804,20	2848,30
804,64	2829,50
805,09	2932,60
805,53	2952,80
805,97	2942,05
806,41	2886,65
806,85	2950,30
807,29	2843,75
807,74	2856,20
808,18	2826,80
808,62	2876,25
809,06	2855,10
809,50	2828,60
809,94	2819,95
810,38	2873,40
810,82	2922,80
811,27	3024,15
811,71	2838,85
812,15	2836,90
812,59	2880,75
813,03	2939,55
813,47	2893,55
813,91	2869,15
814,35	2895,05
814,79	2885,85
815,23	2871,80
815,67	2833,45
816,12	2825,85
816,56	2840,10
817,00	2886,55
817,44	2861,55
817,88	2908,85
818,32	2845,65
818,76	2883,20
819,20	2906,05
819,64	2841,25
820,08	2875,00
820,52	2839,90
820,96	2868,50
821,40	2824,90
821,84	2922,95
822,28	2826,25
822,72	2869,50
823,16	2862,60
823,60	2817,85
824,04	2864,35
824,48	2854,60
824,92	2865,10
825,36	2882,60
825,80	2825,45
826,24	2844,20
826,68	2786,35
827,12	2863,55
827,56	2895,80
828,00	2902,15
828,44	2835,45
828,88	2892,00
829,32	2870,90
829,76	2837,00
830,20	2931,15
830,64	2853,20
831,08	2967,95
831,52	2899,85
831,96	2889,25
832,40	2810,30
832,84	2857,40
833,28	2845,90
833,72	2921,85
834,16	2882,45
834,60	2849,85
835,04	2830,10
835,48	2903,10
835,91	2847,60
836,35	2865,15
836,79	2851,10
837,23	2899,05
837,67	2828,35
838,11	2831,45
838,55	2872,10
838,99	2857,25
839,43	2928,75
839,87	2963,35
840,30	2867,25
840,74	2915,75
841,18	2797,80
841,62	2834,60
842,06	2813,60
842,50	2837,70
842,94	2886,60
843,38	2863,60
843,81	2888,85
844,25	2860,95
844,69	2825,85
845,13	2883,40
845,57	2838,85
846,01	2896,45
846,45	2839,20
846,88	2823,30
847,32	2858,15
847,76	2824,35
848,20	2841,35
848,64	2838,60
849,08	2882,05
849,51	2914,75
849,95	2888,05
850,39	2840,10
850,83	2903,35
851,27	2827,80
851,70	2873,10
852,14	2904,20
852,58	2839,85
853,02	2833,75
853,46	2889,45
853,89	2808,70
854,33	2893,40
854,77	2810,90
855,21	2832,35
855,65	2909,20
856,08	2926,15
856,52	2858,10
856,96	2869,55
857,40	2856,35
857,83	2823,65
858,27	2941,85
858,71	2804,10
859,15	2830,25
859,58	2841,70
860,02	2857,80
860,46	2866,60
860,89	2886,50
861,33	2830,20
861,77	2851,45
862,21	2887,45
862,64	2830,30
863,08	2840,45
863,52	2889,60
863,95	2825,85
864,39	2859,45
864,83	2853,55
865,27	2809,70
865,70	2848,70
866,14	2796,35
866,58	2883,75
867,01	2827,20
867,45	2870,35
867,89	2853,05
868,32	2837,65
868,76	2878,90
869,20	2860,00
869,63	2923,95
870,07	2967,65
870,51	2817,85
870,94	2850,60
871,38	2860,25
871,82	2830,85
872,25	2865,60
872,69	2879,10
873,13	2849,20
873,56	2907,30
874,00	2889,45
874,43	2846,60
874,87	2820,35
875,31	2913,80
875,74	2794,35
876,18	2866,00
876,61	2845,60
877,05	2855,45
877,49	2862,80
877,92	2850,90
878,36	2870,25
878,79	2850,85
879,23	2942,00
879,67	2824,45
880,10	2821,45
880,54	2841,20
880,97	2857,35
881,41	2885,80
881,84	2843,55
882,28	2851,50
882,72	2850,50
883,15	2842,95
883,59	2822,30
884,02	2880,50
884,46	2860,45
884,89	2880,20
885,33	2887,00
885,76	2840,35
886,20	2825,85
886,63	2935,00
887,07	2822,95
887,50	2824,30
887,94	2848,30
888,37	2836,60
888,81	3006,65
889,24	2809,65
889,68	2890,85
890,11	2834,25
890,55	2875,45
890,98	2872,15
891,42	2804,20
891,85	2834,45
892,29	2845,85
892,72	2816,10
893,16	2843,65
893,59	2865,80
894,03	2845,55
894,46	2890,60
894,90	2844,05
895,33	2821,80
895,77	2857,55
896,20	2867,10
896,63	2828,55
897,07	2824,80
897,50	2831,10
897,94	2863,35
898,37	2905,05
898,81	2836,00
899,24	2824,50
899,68	2831,95
900,11	2892,50
900,54	2883,40
900,98	2835,50
901,41	2939,40
901,85	2943,35
902,28	2828,35
902,71	2843,75
903,15	2939,80
903,58	2851,85
904,02	2871,90
904,45	2827,15
904,88	2841,60
905,32	2809,70
905,75	2903,00
906,18	2859,00
906,62	2893,25
907,05	2866,00
907,48	2844,45
907,92	2887,25
908,35	2930,65
908,79	2838,95
909,22	2806,55
909,65	2870,35
910,09	2874,30
910,52	2848,20
910,95	2826,60
911,38	2841,25
911,82	2856,25
912,25	2837,65
912,68	2866,45
913,12	2874,70
913,55	2844,55
913,98	2806,60
914,42	2828,85
914,85	2846,45
915,28	2829,00
915,72	2894,65
916,15	2831,20
916,58	2909,75
917,01	2841,95
917,45	2892,50
917,88	2824,15
918,31	2851,40
918,74	2851,40
919,18	2878,85
919,61	2890,70
920,04	2856,35
920,47	2932,40
920,91	2874,55
921,34	2845,60
921,77	2813,55
922,20	2818,60
922,64	2861,25
923,07	2921,20
923,50	2880,25
923,93	2807,65
924,37	2879,70
924,80	2818,20
925,23	2885,25
925,66	2952,20
926,09	2840,60
926,53	2880,90
926,96	2807,80
927,39	2958,75
927,82	2854,50
928,25	2809,10
928,69	2895,45
929,12	2844,70
929,55	2869,20
929,98	2889,30
930,41	2827,60
930,84	2877,35
931,28	2799,25
931,71	2932,15
932,14	2906,80
932,57	2976,30
933,00	2850,80
933,43	2905,60
933,86	2899,90
934,30	2884,25
934,73	2864,60
935,16	2815,05
935,59	2851,45
936,02	2832,90
936,45	2876,40
936,88	2820,85
937,31	2884,05
937,75	2837,05
938,18	2840,15
938,61	2875,10
939,04	2816,90
939,47	2855,20
939,90	2909,70
940,33	2959,75
940,76	2832,45
941,19	2898,30
941,62	2835,35
942,05	2831,25
942,48	2895,80
942,91	2810,55
943,35	2810,70
943,78	2880,35
944,21	2877,20
944,64	2876,90
945,07	2857,55
945,50	2865,60
945,93	2862,05
946,36	2907,35
946,79	2842,50
947,22	2859,25
947,65	2885,55
948,08	2812,25
948,51	2816,50
948,94	2823,85
949,37	2983,15
949,80	2911,50
950,23	2839,95
950,66	2831,15
951,09	2878,30
951,52	2804,25
951,95	2891,55
952,38	2840,80
952,81	2939,55
953,24	2803,55
953,67	2826,95
954,10	2839,15
954,53	2836,45
954,96	2834,55
955,39	2880,85
955,82	2817,40
956,25	2877,00
956,68	2997,30
957,11	2813,20
957,53	2875,75
957,96	2864,35
958,39	2836,15
958,82	2836,95
959,25	2829,90
959,68	2788,90
960,11	2843,80
960,54	2883,75
960,97	2874,10
961,40	2896,65
961,83	2892,15
962,26	2830,70
962,68	2869,55
963,11	2838,20
963,54	2856,45
963,97	2848,80
964,40	2826,70
964,83	2894,90
965,26	2835,15
965,69	2840,95
966,11	2878,95
966,54	2832,50
966,97	2833,10
967,40	2901,80
967,83	3048,60
968,26	2880,55
968,69	2858,30
969,11	2865,80
969,54	2820,90
969,97	2839,50
970,40	2887,75
970,83	2836,00
971,26	2851,00
971,68	2816,05
972,11	2828,55
972,54	2835,55
972,97	2872,95
973,40	2841,50
973,82	2882,50
974,25	2863,80
974,68	2835,30
975,11	2833,50
975,54	2826,00
975,96	2863,05
976,39	2819,15
976,82	2884,90
977,25	2854,90
977,67	2845,30
978,10	2843,10
978,53	2836,75
978,96	2888,40
979,38	2882,55
979,81	2825,80
980,24	2869,45
980,67	2899,20
981,09	2859,25
981,52	2856,30
981,95	2829,35
982,38	2844,95
982,80	2830,60
983,23	2893,05
983,66	2894,10
984,08	2824,15
984,51	2790,65
984,94	2844,00
985,37	2880,05
985,79	2844,25
986,22	2828,95
986,65	2873,95
987,07	2851,05
987,50	2864,30
987,93	2845,00
988,35	2867,25
988,78	2853,60
989,21	2831,85
989,63	2866,75
990,06	2850,60
990,49	2872,05
990,91	2925,50
991,34	2844,35
991,77	2816,00
992,19	2848,65
992,62	2833,20
993,05	2833,70
993,47	2880,35
993,90	2881,70
994,32	2859,20
994,75	2864,05
995,18	2806,10
995,60	2812,85
996,03	2793,00
996,45	2898,40
996,88	2884,55
997,31	2827,25
997,73	2865,00
998,16	2820,40
998,58	2918,55
999,01	2848,10
999,44	2866,00
999,86	2909,50
1000,29	2825,60
1000,71	2862,55
1001,14	2882,55
1001,56	2855,50
1001,99	2869,15
1002,41	2851,15
1002,84	2882,80
1003,27	2820,10
1003,69	2871,60
1004,12	2866,75
1004,54	2911,15
1004,97	2842,80
1005,39	2805,05
1005,82	2876,95
1006,24	2847,85
1006,67	2829,25
1007,09	2804,25
1007,52	2841,30
1007,94	2836,15
1008,37	3021,55
1008,79	2897,65
1009,22	2891,30
1009,64	2874,95
1010,07	2875,90
1010,49	2899,15
1010,92	2851,25
1011,34	2882,40
1011,77	2858,10
1012,19	2875,55
1012,62	2874,05
1013,04	2826,10
1013,46	2908,00
1013,89	2809,90
1014,31	2886,20
1014,74	2834,10
1015,16	2858,00
1015,59	2819,70
1016,01	2876,10
1016,44	2837,90
1016,86	3374,20
1017,28	2835,90
1017,71	2795,45
1018,13	2991,50
1018,56	2910,45
1018,98	2880,95
1019,40	2839,15
1019,83	2857,60
1020,25	2869,65
1020,68	2867,40
1021,10	2875,95
1021,52	2856,25
1021,95	3022,20
1022,37	2907,60
1022,79	2893,55
1023,22	2882,45
1023,64	2862,95
1024,07	2870,35
1024,49	2889,85
1024,91	2827,40
1025,34	2826,10
1025,76	2958,65
1026,18	2884,75
1026,61	2873,70
1027,03	2861,80
1027,45	2858,10
1027,88	2835,40
1028,30	2963,55
1028,72	2864,75
1029,15	2859,90
1029,57	2874,10
1029,99	2917,50
1030,41	2816,80
1030,84	2866,90
1031,26	2886,85
1031,68	2856,95
1032,11	2900,15
1032,53	2825,40
1032,95	2832,35
1033,37	2872,60
1033,80	2892,50
1034,22	2837,90
1034,64	2954,35
1035,06	2834,00
1035,49	2831,50
1035,91	2864,90
1036,33	2812,40
1036,75	2895,55
1037,18	2892,75
1037,60	2887,75
1038,02	2907,90
1038,44	2932,40
1038,87	2849,90
1039,29	2856,60
1039,71	2876,45
1040,13	2850,25
1040,55	2922,85
1040,98	2919,40
1041,40	2893,95
1041,82	2900,85
1042,24	2854,55
1042,66	2895,60
1043,09	2822,65
1043,51	2849,50
1043,93	2848,70
1044,35	2821,45
1044,77	2871,85
1045,20	2886,10
1045,62	2829,60
1046,04	2880,15
1046,46	2900,65
1046,88	2821,25
1047,30	2900,20
1047,72	2884,45
1048,15	2903,45
1048,57	2846,60
1048,99	2847,85
1049,41	2879,45
1049,83	2892,30
1050,25	2948,35
1050,67	2907,70
1051,09	2864,00
1051,52	2890,55
1051,94	2794,60
1052,36	2863,65
1052,78	2800,40
1053,20	2860,05
1053,62	2837,55
1054,04	2881,05
1054,46	2883,55
1054,88	2946,30
1055,30	2909,85
1055,72	2908,75
1056,14	2881,25
1056,57	3046,20
1056,99	2826,45
1057,41	2880,20
1057,83	2887,20
1058,25	2859,65
1058,67	2848,20
1059,09	2841,25
1059,51	2905,75
1059,93	2871,45
1060,35	2844,00
1060,77	2891,95
1061,19	2935,45
1061,61	2867,95
1062,03	2856,40
1062,45	2833,40
1062,87	2910,90
1063,29	2909,35
1063,71	2850,30
1064,13	2834,45
1064,55	2809,65
1064,97	2906,10
1065,39	2868,80
1065,81	2856,00
1066,23	2875,85
1066,65	2846,50
1067,07	2947,75
1067,49	2872,10
1067,91	2841,05
1068,33	2812,55
1068,75	2896,05
1069,17	2904,45
1069,59	2907,40
1070,00	2854,50
1070,42	2892,75
1070,84	2835,45
1071,26	2820,40
1071,68	2827,80
1072,10	2896,55
1072,52	2845,55
1072,94	2813,95
1073,36	2840,05
1073,78	2846,35
1074,20	2867,65
1074,62	2835,45
1075,03	2829,65
1075,45	2853,55
1075,87	2903,00
1076,29	2843,60
1076,71	2894,10
1077,13	2932,05
1077,55	2799,50
1077,97	2871,10
1078,38	2853,65
1078,80	2862,55
1079,22	2876,15
1079,64	2868,65
1080,06	2849,65
1080,48	2871,50
1080,89	2856,30
1081,31	2855,90
1081,73	2860,70
1082,15	2859,10
1082,57	2907,80
1082,99	2861,70
1083,40	2855,90
1083,82	2918,30
1084,24	2824,90
1084,66	2841,60
1085,08	2879,95
1085,49	2805,90
1085,91	2886,15
1086,33	4161,60
1086,75	2867,10
1087,17	2843,60
1087,58	2837,60
1088,00	2844,35
1088,42	2914,40
1088,84	2851,00
1089,25	2824,55
1089,67	2860,95
1090,09	2845,75
1090,51	2836,45
1090,92	2858,60
1091,34	2842,85
1091,76	2857,60
1092,18	2851,40
1092,59	2856,95
1093,01	2849,25
1093,43	2858,30
1093,84	2830,25
1094,26	2857,60
1094,68	2874,95
1095,10	2819,20
1095,51	2863,50
1095,93	2843,10
1096,35	2881,75
1096,76	2884,50
1097,18	2902,50
1097,60	2848,40
1098,01	2847,00
1098,43	2831,70
1098,85	2842,45
1099,26	2840,45
1099,68	2854,55
1100,10	2823,95
1100,51	2831,25
1100,93	2843,15
1101,35	2850,45
1101,76	2865,45
1102,18	3180,45
1102,60	2914,95
1103,01	2783,75
1103,43	2864,90
1103,84	2851,70
1104,26	2825,55
1104,68	2859,00
1105,09	2788,90
1105,51	2803,10
1105,92	2889,20
1106,34	2803,00
1106,76	2864,55
1107,17	2853,75
1107,59	2863,10
1108,00	2783,35
1108,42	2831,10
1108,83	2801,60
1109,25	2829,90
1109,67	2797,45
1110,08	2808,30
1110,50	2789,65
1110,91	2826,95
1111,33	2807,35
1111,74	2802,90
1112,16	2841,85
1112,57	2854,65
1112,99	2816,15
1113,41	2842,30
1113,82	2817,00
1114,24	2848,40
1114,65	2834,85
1115,07	2810,55
1115,48	2783,55
1115,90	2181,05
1116,31	2194,80
1116,73	2193,15
1117,14	2193,25
>>>>>End Processed Spectral Data<<<<<
