SpectraSuite Data File
++++++++++++++++++++++++++++++++++++
Date: Tue Oct 14 15:08:03 EEST 2014
User: OO Maya
Dark Spectrum Present: No
Reference Spectrum Present: No
Number of Sampled Component Spectra: 1
Spectrometers: MAYP11278
Integration Time (usec): 6000000 (MAYP11278)
Spectra Averaged: 10 (MAYP11278)
Boxcar Smoothing: 0 (MAYP11278)
Correct for Electrical Dark: No (MAYP11278)
Strobe/Lamp Enabled: No (MAYP11278)
Correct for Detector Non-linearity: No (MAYP11278)
Correct for Stray Light: No (MAYP11278)
Number of Pixels in Processed Spectrum: 2068
>>>>>Begin Processed Spectral Data<<<<<
188,14	2314,40
188,62	2227,10
189,09	2199,10
189,57	2198,20
190,05	12241,30
190,53	12838,10
191,01	12859,60
191,49	12970,00
191,97	13655,70
192,44	13030,70
192,92	12737,60
193,40	12353,20
193,88	12997,10
194,36	12918,50
194,84	13269,00
195,31	12786,10
195,79	13601,10
196,27	12783,90
196,75	12959,30
197,23	14754,70
197,70	12967,00
198,18	12513,40
198,66	12886,80
199,14	12520,00
199,62	13271,00
200,09	13525,80
200,57	12821,10
201,05	12934,80
201,53	13546,10
202,01	13498,90
202,48	13514,80
202,96	12462,50
203,44	13306,10
203,92	12621,50
204,40	13708,90
204,87	13944,30
205,35	12773,60
205,83	12773,80
206,31	14079,00
206,78	12991,30
207,26	13341,30
207,74	14821,60
208,22	13240,80
208,69	13660,90
209,17	12984,20
209,65	13728,90
210,13	13566,20
210,60	13136,00
211,08	13121,20
211,56	13542,60
212,04	13246,50
212,51	12742,40
212,99	14430,00
213,47	13578,20
213,95	12952,70
214,42	14244,10
214,90	13444,90
215,38	14200,80
215,85	13475,00
216,33	13647,60
216,81	13597,70
217,29	13643,90
217,76	12827,70
218,24	13283,00
218,72	14088,30
219,19	12467,40
219,67	12846,70
220,15	12910,40
220,62	13276,50
221,10	14823,30
221,58	12875,10
222,05	13889,30
222,53	12919,30
223,01	13857,60
223,49	13035,70
223,96	13840,70
224,44	13190,50
224,92	13058,60
225,39	12752,80
225,87	13235,40
226,35	12948,50
226,82	13286,20
227,30	13979,30
227,77	13170,10
228,25	13673,10
228,73	13709,60
229,20	13658,60
229,68	13106,30
230,16	13365,50
230,63	13029,90
231,11	13776,60
231,59	13864,30
232,06	13413,50
232,54	13520,20
233,02	12795,20
233,49	13429,80
233,97	13504,30
234,44	15641,60
234,92	13584,70
235,40	12990,70
235,87	12781,30
236,35	12616,70
236,82	13899,30
237,30	14778,70
237,78	13015,00
238,25	13455,20
238,73	13489,70
239,20	13412,30
239,68	13239,70
240,16	12617,00
240,63	13781,60
241,11	14282,20
241,58	13468,50
242,06	13243,50
242,53	13906,20
243,01	14132,50
243,49	12718,80
243,96	12873,20
244,44	13927,00
244,91	14223,50
245,39	13244,30
245,86	14113,00
246,34	44339,80
246,82	12390,80
247,29	13543,10
247,77	13384,10
248,24	13562,40
248,72	13614,00
249,19	12495,80
249,67	13374,70
250,14	13843,50
250,62	13539,80
251,09	14313,50
251,57	13469,70
252,04	14757,80
252,52	14258,90
253,00	13093,30
253,47	14189,90
253,95	13459,10
254,42	13301,00
254,90	13605,80
255,37	13596,00
255,85	13931,50
256,32	13113,90
256,80	13571,10
257,27	13788,90
257,75	14035,10
258,22	15488,60
258,70	13564,00
259,17	13101,10
259,65	13625,30
260,12	13804,10
260,59	14522,00
261,07	13321,60
261,54	13208,40
262,02	14105,00
262,49	13003,30
262,97	13638,10
263,44	13333,80
263,92	12716,50
264,39	13922,90
264,87	14163,70
265,34	13199,80
265,82	13570,10
266,29	13727,20
266,76	13909,60
267,24	13237,60
267,71	13382,10
268,19	13624,60
268,66	13749,20
269,14	12538,40
269,61	12942,70
270,09	13051,40
270,56	13839,10
271,03	14146,90
271,51	13275,60
271,98	13511,60
272,46	12719,80
272,93	12799,70
273,40	12371,10
273,88	13467,90
274,35	15771,30
274,83	13807,40
275,30	13925,90
275,78	13097,20
276,25	13456,20
276,72	13859,00
277,20	13951,30
277,67	12855,60
278,14	13431,60
278,62	12786,30
279,09	16071,70
279,57	13268,90
280,04	13106,10
280,51	15975,30
280,99	14069,20
281,46	15546,70
281,93	13049,80
282,41	14170,80
282,88	13271,80
283,36	13353,10
283,83	13681,50
284,30	12947,40
284,78	12866,30
285,25	13920,40
285,72	13445,50
286,20	13727,80
286,67	13652,50
287,14	12637,30
287,62	13766,10
288,09	14408,10
288,56	13348,20
289,04	13979,90
289,51	12461,60
289,98	14473,20
290,46	13006,40
290,93	13680,20
291,40	13133,40
291,88	13714,10
292,35	15051,90
292,82	13124,60
293,29	14280,70
293,77	13131,40
294,24	13794,80
294,71	13782,60
295,19	13135,30
295,66	13469,60
296,13	13651,70
296,61	14711,30
297,08	14538,60
297,55	13937,40
298,02	13762,00
298,50	13747,40
298,97	13182,00
299,44	14585,00
299,91	13359,60
300,39	13813,40
300,86	13162,90
301,33	14143,00
301,81	14123,80
302,28	14035,60
302,75	12909,30
303,22	13962,90
303,70	13973,20
304,17	13123,90
304,64	13210,90
305,11	12996,40
305,58	13607,20
306,06	13724,10
306,53	13665,80
307,00	13995,60
307,47	13216,80
307,95	13241,80
308,42	13612,10
308,89	13238,70
309,36	14098,90
309,83	14101,00
310,31	13744,50
310,78	13583,90
311,25	13803,60
311,72	13147,50
312,20	14263,40
312,67	13464,40
313,14	14709,30
313,61	13138,20
314,08	13301,60
314,56	13658,60
315,03	13209,40
315,50	13116,20
315,97	14134,90
316,44	13909,90
316,91	13715,90
317,39	13986,60
317,86	13679,70
318,33	15449,10
318,80	13493,60
319,27	13439,70
319,74	12712,90
320,22	13824,90
320,69	14748,00
321,16	14092,40
321,63	13363,10
322,10	12576,60
322,57	12922,00
323,04	14705,30
323,52	13405,20
323,99	15387,00
324,46	12701,70
324,93	13704,60
325,40	13458,50
325,87	13340,00
326,34	13351,60
326,82	13275,80
327,29	13851,20
327,76	13817,40
328,23	13824,60
328,70	13675,30
329,17	13371,80
329,64	13312,30
330,11	13331,00
330,58	13098,50
331,05	14076,50
331,53	13814,40
332,00	14696,90
332,47	13048,50
332,94	14802,10
333,41	14076,50
333,88	13966,50
334,35	14423,50
334,82	13698,60
335,29	13862,80
335,76	15994,20
336,23	12949,90
336,70	13515,80
337,18	13321,50
337,65	13751,20
338,12	13318,60
338,59	13345,70
339,06	14644,20
339,53	14120,50
340,00	12922,00
340,47	13063,40
340,94	13019,20
341,41	13822,40
341,88	14317,10
342,35	13322,90
342,82	13689,10
343,29	14013,40
343,76	13700,10
344,23	13315,50
344,70	13510,70
345,17	13048,90
345,64	13550,20
346,11	13879,50
346,58	13245,00
347,05	13176,30
347,52	14586,10
347,99	13212,40
348,46	14253,70
348,93	13657,70
349,40	12736,80
349,87	13613,20
350,34	14071,50
350,81	13580,80
351,28	13043,30
351,75	13798,60
352,22	14746,00
352,69	13691,40
353,16	13429,10
353,63	13664,50
354,10	13920,90
354,57	13712,80
355,04	13986,60
355,51	13768,50
355,98	14642,20
356,45	13088,60
356,92	14692,20
357,39	13067,10
357,86	15115,90
358,33	14029,40
358,80	12830,00
359,27	12987,60
359,74	13235,70
360,21	13246,30
360,68	14143,60
361,14	14530,10
361,61	13312,10
362,08	13421,30
362,55	13640,30
363,02	13375,20
363,49	13492,50
363,96	15145,40
364,43	13940,30
364,90	13096,10
365,37	13883,20
365,84	13287,60
366,31	12812,60
366,77	13700,40
367,24	13521,70
367,71	24864,30
368,18	12431,40
368,65	12976,10
369,12	14104,70
369,59	12868,80
370,06	14147,30
370,53	13746,60
370,99	13317,90
371,46	19402,20
371,93	13696,60
372,40	13104,10
372,87	12677,60
373,34	13148,30
373,81	13609,70
374,27	12748,90
374,74	12979,60
375,21	13751,20
375,68	12615,50
376,15	14520,10
376,62	13233,30
377,09	12893,40
377,55	12846,90
378,02	13850,40
378,49	13700,40
378,96	13398,10
379,43	13495,40
379,90	13476,20
380,36	13907,30
380,83	14631,60
381,30	13591,10
381,77	14576,80
382,24	14480,30
382,71	12730,40
383,17	13703,90
383,64	13295,30
384,11	14160,10
384,58	13490,30
385,05	17054,90
385,51	13521,30
385,98	13242,60
386,45	13332,40
386,92	14692,40
387,39	12946,40
387,85	12747,30
388,32	14171,20
388,79	13734,40
389,26	14305,70
389,72	13108,00
390,19	13919,60
390,66	13639,30
391,13	13849,30
391,59	13678,80
392,06	13684,50
392,53	13764,80
393,00	13402,00
393,46	13343,40
393,93	15096,30
394,40	13476,20
394,87	14293,50
395,33	13043,80
395,80	13982,80
396,27	16805,70
396,74	12723,60
397,20	13967,50
397,67	14101,30
398,14	12932,40
398,61	13560,80
399,07	13255,70
399,54	12937,70
400,01	14233,60
400,47	12940,80
400,94	13440,20
401,41	13238,70
401,88	13879,90
402,34	13725,30
402,81	13776,00
403,28	13377,00
403,74	15099,00
404,21	14091,00
404,68	15537,70
405,14	16396,10
405,61	16424,20
406,08	15521,00
406,54	17093,20
407,01	17564,60
407,48	19241,80
407,95	18271,70
408,41	19042,60
408,88	19864,30
409,35	19294,10
409,81	20982,00
410,28	19948,30
410,74	21519,20
411,21	20333,80
411,68	22013,40
412,14	21115,20
412,61	20594,10
413,08	22115,20
413,54	21580,10
414,01	22291,40
414,48	22392,90
414,94	23233,10
415,41	21977,90
415,88	23202,30
416,34	22422,10
416,81	22395,10
417,27	23466,50
417,74	22678,60
418,21	22303,00
418,67	22576,40
419,14	22673,20
419,60	23381,20
420,07	22494,40
420,54	23831,90
421,00	22920,70
421,47	23889,00
421,93	23791,80
422,40	24139,00
422,87	23207,40
423,33	23281,40
423,80	23579,60
424,26	23898,00
424,73	23420,00
425,19	23964,80
425,66	23260,30
426,13	23819,00
426,59	22681,30
427,06	23685,40
427,52	23602,40
427,99	23870,10
428,45	22865,60
428,92	24551,70
429,38	24644,20
429,85	25014,60
430,32	25249,70
430,78	26788,40
431,25	23352,40
431,71	23338,50
432,18	24046,40
432,64	23762,80
433,11	23425,40
433,57	23457,60
434,04	24475,00
434,50	23567,10
434,97	23812,50
435,43	22917,30
435,90	24002,70
436,36	23538,90
436,83	23068,10
437,29	23870,70
437,76	23554,40
438,22	23658,60
438,69	23166,20
439,15	23341,20
439,62	26033,40
440,08	23801,90
440,55	24465,80
441,01	25252,90
441,48	24670,40
441,94	24870,30
442,41	26465,20
442,87	24106,40
443,34	25127,40
443,80	25236,40
444,27	24081,30
444,73	25590,60
445,20	24765,10
445,66	24560,70
446,12	24322,70
446,59	24880,00
447,05	24275,10
447,52	24118,40
447,98	23734,90
448,45	23513,10
448,91	24340,60
449,38	24514,70
449,84	23890,40
450,30	23358,00
450,77	23182,70
451,23	23175,70
451,70	23582,00
452,16	24027,10
452,63	22811,60
453,09	23756,30
453,55	22723,90
454,02	22727,10
454,48	22932,90
454,95	23355,20
455,41	22932,90
455,87	23152,20
456,34	23377,40
456,80	22464,50
457,27	23992,90
457,73	23253,10
458,19	23340,10
458,66	22670,90
459,12	23619,40
459,58	23228,30
460,05	23690,70
460,51	22930,30
460,98	22557,70
461,44	23908,00
461,90	22957,40
462,37	21528,20
462,83	21538,50
463,29	23096,00
463,76	22589,80
464,22	23048,90
464,68	23302,10
465,15	23188,40
465,61	23277,60
466,07	24169,10
466,54	22805,40
467,00	22517,20
467,46	22382,90
467,93	21826,10
468,39	22081,40
468,85	21847,80
469,32	21107,50
469,78	20584,50
470,24	21233,90
470,71	21077,70
471,17	20630,90
471,63	20804,50
472,10	20643,80
472,56	20964,00
473,02	21304,60
473,48	22462,60
473,95	21656,10
474,41	21268,60
474,87	21842,90
475,34	21522,90
475,80	22171,00
476,26	21604,20
476,72	21768,60
477,19	21458,20
477,65	21654,10
478,11	22864,10
478,58	22071,20
479,04	22396,70
479,50	21521,10
479,96	23327,00
480,43	22718,10
480,89	22405,20
481,35	21887,50
481,81	22470,20
482,28	22196,40
482,74	21049,40
483,20	21623,00
483,66	21370,10
484,13	22535,70
484,59	25331,10
485,05	29097,80
485,51	35509,60
485,97	39011,90
486,44	34194,90
486,90	24283,30
487,36	23762,20
487,82	21667,20
488,29	20780,90
488,75	20924,20
489,21	21377,60
489,67	21051,90
490,13	21556,20
490,60	20362,00
491,06	21122,50
491,52	20265,80
491,98	20585,20
492,44	20013,10
492,90	21621,70
493,37	21090,10
493,83	21176,90
494,29	20598,00
494,75	20862,80
495,21	20440,90
495,67	20666,20
496,14	21673,70
496,60	21401,90
497,06	20895,60
497,52	21560,10
497,98	21130,80
498,44	20221,00
498,91	20957,70
499,37	20794,60
499,83	22847,80
500,29	20923,00
500,75	20523,30
501,21	21068,30
501,67	21055,10
502,14	21590,50
502,60	21274,60
503,06	21172,60
503,52	20979,20
503,98	21107,80
504,44	20173,70
504,90	20836,60
505,36	20802,00
505,82	20233,90
506,29	20686,40
506,75	21094,90
507,21	20152,80
507,67	20549,30
508,13	20701,50
508,59	19897,40
509,05	19677,20
509,51	19133,40
509,97	19839,50
510,43	19919,90
510,89	19479,10
511,35	20553,70
511,82	20328,20
512,28	19002,40
512,74	18682,70
513,20	19061,80
513,66	19737,90
514,12	18281,00
514,58	19789,30
515,04	20265,40
515,50	18081,30
515,96	19426,00
516,42	19990,80
516,88	19754,10
517,34	20687,40
517,80	19082,30
518,26	18797,40
518,72	21397,40
519,18	19110,50
519,64	18494,70
520,10	17782,10
520,56	17933,50
521,02	18651,20
521,48	18919,10
521,94	18947,70
522,40	18476,10
522,86	17946,10
523,32	19794,60
523,78	19322,80
524,24	18577,90
524,70	20053,90
525,16	18904,20
525,62	18776,20
526,08	19519,40
526,54	18734,70
527,00	18617,10
527,46	18201,90
527,92	18396,80
528,38	19481,10
528,84	19614,10
529,30	18950,50
529,76	18316,30
530,22	19092,80
530,68	19134,70
531,14	17976,40
531,60	19507,70
532,06	18754,20
532,52	18984,00
532,98	19493,00
533,44	20077,10
533,90	19621,40
534,36	19146,20
534,82	19653,90
535,28	19295,60
535,73	19561,60
536,19	18764,50
536,65	19173,30
537,11	18455,80
537,57	19790,40
538,03	19608,20
538,49	19753,30
538,95	20948,60
539,41	20221,70
539,87	23296,60
540,33	18780,60
540,79	20879,60
541,24	20052,70
541,70	19195,50
542,16	20223,50
542,62	20109,30
543,08	19627,30
543,54	21920,80
544,00	19563,40
544,46	21693,10
544,91	20707,70
545,37	19673,80
545,83	19223,80
546,29	20033,00
546,75	19698,30
547,21	20509,90
547,67	21392,50
548,13	21151,20
548,58	20114,60
549,04	19279,90
549,50	18723,70
549,96	20937,10
550,42	19132,10
550,88	18445,30
551,33	19632,00
551,79	20373,40
552,25	21977,80
552,71	20379,20
553,17	19353,90
553,63	20121,00
554,08	19420,80
554,54	18733,00
555,00	20057,00
555,46	20497,70
555,92	21650,10
556,37	20034,20
556,83	20380,10
557,29	18515,30
557,75	19862,00
558,21	20787,30
558,66	18749,00
559,12	19088,40
559,58	19230,00
560,04	20235,50
560,50	20642,80
560,95	21222,80
561,41	20719,90
561,87	20195,80
562,33	19706,60
562,78	19990,80
563,24	20838,00
563,70	21817,70
564,16	20745,60
564,61	21467,90
565,07	21164,70
565,53	21210,30
565,99	21745,50
566,44	22712,60
566,90	22629,10
567,36	23593,00
567,82	24483,80
568,27	26035,10
568,73	26711,60
569,19	29028,40
569,65	32026,80
570,10	32563,10
570,56	33147,40
571,02	35267,90
571,47	35662,20
571,93	35142,00
572,39	32554,90
572,85	33526,50
573,30	37512,90
573,76	39523,50
574,22	41540,10
574,67	41814,40
575,13	39198,80
575,59	34616,70
576,04	36542,50
576,50	39887,10
576,96	44176,00
577,42	48188,00
577,87	51496,80
578,33	44652,40
578,79	39380,30
579,24	36959,50
579,70	38739,00
580,16	41383,60
580,61	43941,40
581,07	52759,00
581,53	60397,10
581,98	55913,30
582,44	47760,10
582,89	39108,30
583,35	35010,80
583,81	35333,90
584,26	38396,40
584,72	44379,50
585,18	47546,90
585,63	46951,00
586,09	39764,10
586,55	37935,70
587,00	42059,80
587,46	42971,30
587,91	39284,70
588,37	35882,00
588,83	34588,00
589,28	31940,10
589,74	32643,80
590,19	32896,40
590,65	30867,60
591,11	29155,90
591,56	29439,50
592,02	32318,80
592,47	38066,40
592,93	43551,30
593,39	40876,10
593,84	36735,60
594,30	31981,20
594,75	33513,00
595,21	36042,50
595,66	32863,90
596,12	29515,80
596,58	29925,70
597,03	31425,20
597,49	32175,60
597,94	30657,80
598,40	32852,40
598,85	39370,80
599,31	38193,20
599,76	36226,20
600,22	37180,00
600,67	35928,10
601,13	35049,40
601,59	32913,00
602,04	31613,90
602,50	35768,50
602,95	34631,20
603,41	35983,50
603,86	32877,50
604,32	30955,20
604,77	31030,90
605,23	32065,10
605,68	35928,50
606,14	34626,60
606,59	30792,10
607,05	32626,30
607,50	32976,30
607,96	31104,60
608,41	30960,90
608,87	30585,20
609,32	30934,40
609,78	32720,70
610,23	32820,90
610,69	29552,10
611,14	29232,40
611,60	28754,10
612,05	29819,70
612,50	28680,90
612,96	29082,40
613,41	30478,00
613,87	27650,70
614,32	28004,80
614,78	28942,60
615,23	29844,80
615,69	29487,60
616,14	27359,50
616,59	26330,70
617,05	26964,80
617,50	27733,20
617,96	28425,00
618,41	25378,20
618,87	23840,40
619,32	23951,60
619,77	25857,20
620,23	25621,10
620,68	23180,30
621,14	21724,90
621,59	23340,90
622,05	25062,00
622,50	25202,80
622,95	26085,40
623,41	24993,30
623,86	23840,90
624,32	25964,30
624,77	24651,30
625,22	23640,80
625,68	23249,50
626,13	21657,30
626,58	22039,40
627,04	22900,60
627,49	22044,90
627,95	21340,00
628,40	20443,70
628,85	20333,40
629,31	21847,20
629,76	21304,40
630,21	20560,20
630,67	21273,10
631,12	20053,80
631,57	20802,90
632,03	20228,80
632,48	19797,50
632,93	18540,50
633,39	18987,10
633,84	19215,90
634,29	18807,60
634,75	18049,30
635,20	18401,20
635,65	18738,50
636,11	19027,40
636,56	20140,10
637,01	18987,60
637,47	18009,60
637,92	18867,00
638,37	19544,00
638,83	19031,60
639,28	18777,60
639,73	17745,20
640,18	17353,20
640,64	18559,00
641,09	18825,90
641,54	17243,30
642,00	17625,30
642,45	17374,70
642,90	16764,50
643,35	17661,30
643,81	18158,70
644,26	17119,10
644,71	17078,80
645,17	17391,70
645,62	17049,60
646,07	17349,20
646,52	17147,80
646,98	17374,50
647,43	17876,00
647,88	18559,80
648,33	19897,60
648,79	19107,10
649,24	20568,60
649,69	19312,30
650,14	20986,50
650,59	17285,70
651,05	17606,60
651,50	18380,20
651,95	19863,10
652,40	19581,40
652,86	20560,90
653,31	20568,50
653,76	20913,70
654,21	22946,70
654,66	30274,90
655,12	61875,50
655,57	64000,00
656,02	64000,00
656,47	64000,00
656,92	64000,00
657,38	40705,80
657,83	28892,70
658,28	23641,80
658,73	21437,60
659,18	19228,60
659,63	21610,00
660,09	17468,70
660,54	18177,20
660,99	17116,50
661,44	16640,30
661,89	17081,80
662,34	16753,10
662,80	16041,80
663,25	17121,30
663,70	16642,20
664,15	16935,80
664,60	17197,60
665,05	16842,00
665,50	17807,40
665,96	16529,10
666,41	16824,90
666,86	16430,00
667,31	18283,20
667,76	17672,80
668,21	16284,90
668,66	16809,40
669,11	16209,80
669,56	18511,30
670,02	15979,40
670,47	16686,80
670,92	17924,00
671,37	18528,80
671,82	21470,90
672,27	22604,10
672,72	20100,10
673,17	18374,50
673,62	18198,50
674,07	19989,90
674,52	17514,00
674,98	17322,70
675,43	16582,00
675,88	17023,30
676,33	17716,80
676,78	17275,40
677,23	17442,50
677,68	18587,70
678,13	21431,70
678,58	18721,80
679,03	19060,70
679,48	20357,70
679,93	20066,40
680,38	19653,60
680,83	18831,70
681,28	17909,30
681,73	18417,60
682,18	18442,80
682,63	17665,10
683,08	18313,80
683,53	19498,20
683,98	20232,30
684,43	21335,70
684,89	21404,20
685,34	21798,00
685,79	22075,00
686,24	20625,10
686,69	19494,80
687,14	20462,60
687,59	20029,00
688,04	19297,30
688,49	18212,30
688,93	20492,30
689,38	19703,30
689,83	18298,80
690,28	18488,50
690,73	19110,20
691,18	19834,50
691,63	20766,00
692,08	19258,40
692,53	19642,30
692,98	19641,10
693,43	20210,90
693,88	19377,70
694,33	18045,50
694,78	18474,30
695,23	22333,50
695,68	19013,60
696,13	17922,90
696,58	20185,30
697,03	21338,50
697,48	21933,60
697,93	20978,50
698,38	19210,50
698,82	19889,70
699,27	19636,10
699,72	18260,10
700,17	17862,70
700,62	18260,50
701,07	18548,50
701,52	20886,50
701,97	17800,90
702,42	20317,20
702,87	18873,70
703,32	18608,70
703,76	18508,50
704,21	18188,80
704,66	17865,70
705,11	18574,40
705,56	18243,70
706,01	18903,30
706,46	19352,80
706,91	22497,00
707,36	22944,70
707,80	22199,30
708,25	21279,80
708,70	21016,30
709,15	19843,50
709,60	19242,10
710,05	19826,00
710,50	20433,90
710,94	19927,80
711,39	20203,00
711,84	19177,60
712,29	18971,00
712,74	18701,70
713,19	21442,00
713,63	20798,80
714,08	21799,00
714,53	22363,20
714,98	21170,30
715,43	19672,00
715,87	19280,00
716,32	18110,90
716,77	17762,60
717,22	17411,10
717,67	17673,10
718,12	19494,40
718,56	20922,00
719,01	19131,50
719,46	19138,40
719,91	19641,80
720,35	19164,80
720,80	19153,80
721,25	19990,40
721,70	19339,30
722,15	19680,30
722,59	18947,20
723,04	18097,10
723,49	18188,60
723,94	19324,00
724,38	18323,90
724,83	19648,20
725,28	19261,70
725,73	20712,70
726,17	20467,00
726,62	20344,10
727,07	21272,90
727,52	19112,10
727,96	20954,90
728,41	20741,90
728,86	20363,40
729,31	21633,10
729,75	20909,70
730,20	22540,80
730,65	22222,90
731,09	23755,30
731,54	24103,00
731,99	22846,70
732,44	22557,90
732,88	21814,10
733,33	23838,20
733,78	24263,60
734,22	24847,90
734,67	25514,10
735,12	23762,80
735,57	22540,80
736,01	24972,50
736,46	22815,80
736,91	23241,40
737,35	23215,00
737,80	22097,50
738,25	21035,00
738,69	21777,40
739,14	23546,70
739,59	23287,80
740,03	22964,60
740,48	20542,40
740,93	18779,10
741,37	19257,20
741,82	19544,10
742,26	20007,00
742,71	20330,40
743,16	19573,10
743,60	18681,50
744,05	18882,90
744,50	20076,20
744,94	20270,60
745,39	20203,80
745,84	20191,40
746,28	20329,50
746,73	18363,70
747,17	18879,70
747,62	18893,00
748,07	19213,50
748,51	18542,30
748,96	19402,30
749,40	21366,20
749,85	24812,40
750,30	23063,10
750,74	22451,50
751,19	21151,20
751,63	21662,50
752,08	21624,50
752,53	20959,30
752,97	22164,70
753,42	20940,00
753,86	21950,00
754,31	21734,60
754,75	21661,60
755,20	22061,40
755,64	23425,30
756,09	24326,50
756,54	25794,10
756,98	26605,10
757,43	28874,80
757,87	28024,30
758,32	26474,10
758,76	24464,50
759,21	25081,60
759,65	26487,60
760,10	29000,40
760,54	28405,50
760,99	27563,30
761,43	25497,50
761,88	23999,10
762,33	21624,10
762,77	21418,70
763,22	23176,30
763,66	24680,70
764,11	26277,30
764,55	26643,30
765,00	28370,00
765,44	27759,30
765,89	23878,20
766,33	21662,80
766,77	20516,20
767,22	20162,50
767,66	21218,90
768,11	22707,00
768,55	24957,70
769,00	24394,20
769,44	25276,70
769,89	22234,80
770,33	23415,10
770,78	24562,00
771,22	24418,00
771,67	24213,00
772,11	22454,00
772,56	21631,50
773,00	20928,20
773,44	21534,60
773,89	20406,90
774,33	19259,10
774,78	19960,60
775,22	18957,20
775,67	19494,10
776,11	19034,70
776,55	18549,30
777,00	19261,00
777,44	19487,30
777,89	20194,10
778,33	21240,10
778,77	21551,50
779,22	22241,60
779,66	23698,30
780,11	21700,40
780,55	21360,60
780,99	23828,40
781,44	25201,60
781,88	24756,60
782,33	23199,00
782,77	21780,40
783,21	22407,60
783,66	22297,00
784,10	22649,40
784,55	20658,90
784,99	20105,80
785,43	20905,30
785,88	21659,10
786,32	21771,10
786,76	22550,20
787,21	23026,50
787,65	22653,80
788,09	23571,40
788,54	23367,30
788,98	21608,50
789,42	21457,30
789,87	19530,60
790,31	19291,70
790,75	18658,70
791,20	18993,30
791,64	19815,00
792,08	19301,80
792,53	19100,20
792,97	19213,40
793,41	24748,00
793,86	24025,60
794,30	25120,80
794,74	25859,10
795,18	22346,70
795,63	20901,60
796,07	19476,80
796,51	17764,00
796,96	18336,50
797,40	18750,20
797,84	19455,10
798,28	19997,50
798,73	19891,60
799,17	19228,50
799,61	18682,30
800,06	19708,60
800,50	18465,80
800,94	17708,00
801,38	18162,50
801,83	17798,10
802,27	17118,40
802,71	18721,70
803,15	19733,60
803,60	19350,40
804,04	19185,00
804,48	18109,60
804,92	18174,50
805,37	21026,80
805,81	22415,60
806,25	23027,40
806,69	22889,90
807,13	22776,00
807,58	19607,90
808,02	19954,30
808,46	19554,60
808,90	20088,80
809,34	19752,30
809,79	18267,50
810,23	17927,60
810,67	18888,00
811,11	19383,90
811,55	20600,30
812,00	17234,40
812,44	16817,00
812,88	18645,50
813,32	20600,30
813,76	20865,50
814,21	21083,70
814,65	19807,60
815,09	18156,10
815,53	17245,70
815,97	16848,50
816,41	17393,40
816,85	17773,60
817,30	19252,50
817,74	18406,80
818,18	18441,80
818,62	17105,20
819,06	17535,10
819,50	18187,60
819,94	18253,50
820,39	19187,90
820,83	19514,00
821,27	19718,30
821,71	18111,00
822,15	18389,70
822,59	16672,90
823,03	17223,10
823,47	17482,20
823,92	16778,20
824,36	17215,40
824,80	17967,40
825,24	18423,50
825,68	18395,80
826,12	18579,80
826,56	17851,60
827,00	17172,40
827,44	18177,50
827,88	18985,00
828,32	19237,70
828,77	17328,10
829,21	18406,80
829,65	18524,00
830,09	16545,70
830,53	17639,60
830,97	15609,60
831,41	17386,70
831,85	16620,10
832,29	17035,20
832,73	16088,40
833,17	17493,10
833,61	18098,90
834,05	18563,90
834,49	18091,70
834,93	17463,30
835,37	16546,20
835,81	17069,60
836,25	16168,80
836,69	16115,40
837,13	15439,50
837,57	16097,10
838,01	15100,40
838,45	15699,80
838,89	16465,70
839,33	16330,00
839,77	17879,90
840,21	18647,90
840,65	16128,00
841,09	17268,00
841,53	14815,00
841,97	15123,20
842,41	14663,30
842,85	15196,40
843,29	16061,20
843,73	15508,60
844,17	16146,90
844,61	15667,10
845,05	15120,90
845,49	15869,10
845,93	15535,40
846,37	16040,10
846,81	15307,50
847,25	15236,70
847,69	15882,80
848,13	15880,30
848,57	15469,70
849,01	15058,10
849,45	15722,60
849,89	16441,00
850,32	15856,30
850,76	15237,20
851,20	16538,40
851,64	15693,40
852,08	17511,90
852,52	19683,60
852,96	19130,20
853,40	20248,10
853,84	22024,80
854,28	18690,90
854,72	19133,50
855,16	18142,60
855,59	17501,60
856,03	18243,70
856,47	19054,90
856,91	17979,20
857,35	17841,60
857,79	16563,40
858,23	16037,20
858,67	17756,30
859,10	15133,70
859,54	15934,30
859,98	16072,20
860,42	15980,10
860,86	16692,20
861,30	16724,00
861,74	15615,10
862,17	16527,80
862,61	17208,80
863,05	16334,00
863,49	16607,10
863,93	18092,10
864,37	15921,10
864,80	15807,40
865,24	15529,00
865,68	14961,80
866,12	16154,30
866,56	15132,60
867,00	17236,70
867,43	16434,10
867,87	16743,40
868,31	16213,30
868,75	15751,40
869,19	16002,10
869,62	15805,10
870,06	17870,40
870,50	18499,70
870,94	16020,00
871,38	17355,40
871,81	16235,90
872,25	15234,70
872,69	15898,80
873,13	16132,20
873,56	16035,80
874,00	17199,00
874,44	17405,20
874,88	17132,20
875,31	16628,80
875,75	18516,70
876,19	16220,90
876,63	16907,40
877,06	17311,10
877,50	17555,00
877,94	17758,20
878,38	18711,10
878,81	18830,90
879,25	17670,80
879,69	19570,50
880,13	17643,30
880,56	17800,20
881,00	17835,70
881,44	17484,80
881,87	17227,60
882,31	16341,80
882,75	16279,00
883,19	16305,50
883,62	16944,50
884,06	16150,10
884,50	17122,70
884,93	17214,90
885,37	17344,20
885,81	17742,80
886,24	17407,80
886,68	16310,60
887,12	17318,80
887,55	15578,40
887,99	15501,60
888,43	16207,20
888,86	16390,40
889,30	18449,80
889,74	15485,40
890,17	16741,00
890,61	16052,20
891,05	17540,20
891,48	17234,40
891,92	17113,00
892,36	17554,00
892,79	16734,30
893,23	15854,20
893,67	16068,30
894,10	16378,20
894,54	15896,50
894,97	16965,00
895,41	16470,70
895,85	16106,20
896,28	17403,80
896,72	17416,00
897,16	16395,70
897,59	16196,40
898,03	16282,00
898,46	17120,00
898,90	17638,60
899,34	16242,60
899,77	16283,60
900,21	15970,80
900,64	17401,50
901,08	17576,60
901,51	16539,90
901,95	17838,40
902,39	17821,50
902,82	15746,70
903,26	16171,20
903,69	17753,80
904,13	16662,10
904,56	18104,30
905,00	17582,30
905,43	17316,80
905,87	16901,60
906,31	18136,70
906,74	16504,30
907,18	16932,20
907,61	16302,80
908,05	16002,40
908,48	16481,70
908,92	17083,20
909,35	15795,70
909,79	15214,40
910,22	16293,30
910,66	16577,10
911,09	16062,90
911,53	16232,70
911,96	16449,30
912,40	16634,10
912,83	16470,30
913,27	16760,90
913,70	16331,70
914,14	16034,50
914,57	15441,70
915,01	15689,60
915,44	16192,00
915,88	16001,50
916,31	17107,70
916,75	16548,10
917,18	17205,80
917,62	16524,50
918,05	17431,00
918,49	15960,40
918,92	16133,10
919,35	16393,10
919,79	16840,40
920,22	16966,50
920,66	16768,50
921,09	17787,80
921,53	16807,70
921,96	16082,10
922,40	15828,50
922,83	16368,90
923,26	17128,70
923,70	17524,50
924,13	16913,70
924,57	15590,80
925,00	16300,10
925,44	15503,50
925,87	16478,60
926,30	17665,70
926,74	15854,00
927,17	16521,70
927,61	15735,00
928,04	17856,10
928,47	16196,60
928,91	15621,70
929,34	16745,20
929,77	15914,60
930,21	16500,60
930,64	16622,40
931,08	16082,60
931,51	17037,00
931,94	15310,30
932,38	17358,50
932,81	17180,80
933,24	18161,90
933,68	15901,10
934,11	16945,80
934,54	16599,40
934,98	16049,30
935,41	15632,70
935,84	14857,00
936,28	15267,90
936,71	15039,30
937,14	16067,50
937,58	15336,60
938,01	16350,10
938,44	15660,90
938,88	15686,70
939,31	16378,30
939,74	15383,20
940,18	15606,90
940,61	16136,40
941,04	17071,10
941,48	14952,30
941,91	16149,40
942,34	15008,40
942,77	15039,70
943,21	15724,40
943,64	14595,40
944,07	14728,30
944,51	16022,50
944,94	16002,50
945,37	15947,90
945,80	15554,60
946,24	15721,40
946,67	15699,20
947,10	16379,70
947,53	15235,40
947,97	15664,40
948,40	16068,20
948,83	14676,40
949,26	15056,70
949,70	15359,50
950,13	17580,90
950,56	16525,00
950,99	15360,60
951,43	15511,50
951,86	16425,90
952,29	15251,60
952,72	16648,30
953,15	15884,50
953,59	17261,90
954,02	14983,40
954,45	15232,70
954,88	15256,10
955,31	15048,50
955,75	15319,50
956,18	15765,40
956,61	14710,40
957,04	15647,50
957,47	17378,40
957,91	14692,20
958,34	15602,10
958,77	15438,90
959,20	15153,10
959,63	15003,40
960,06	14872,30
960,50	14144,70
960,93	14933,50
961,36	15671,70
961,79	15617,10
962,22	15979,20
962,65	15757,00
963,09	15003,40
963,52	15570,40
963,95	15206,10
964,38	15662,70
964,81	15507,30
965,24	15278,50
965,67	16293,10
966,10	15140,50
966,54	15375,40
966,97	15900,20
967,40	15026,80
967,83	14973,50
968,26	16013,20
968,69	18331,40
969,12	15773,70
969,55	15164,90
969,98	15576,80
970,42	14693,20
970,85	14913,40
971,28	15511,50
971,71	14941,00
972,14	15274,10
972,57	14689,30
973,00	15027,30
973,43	15182,80
973,86	15847,20
974,29	15372,30
974,72	16009,10
975,15	15591,10
975,58	14913,80
976,01	14907,10
976,45	14897,70
976,88	15449,60
977,31	14697,20
977,74	15788,10
978,17	15393,00
978,60	15104,40
979,03	14998,10
979,46	14928,60
979,89	15762,60
980,32	15507,90
980,75	14801,00
981,18	15391,90
981,61	15912,50
982,04	15153,40
982,47	15218,50
982,90	14925,80
983,33	15089,10
983,76	14809,10
984,19	15953,50
984,62	15737,90
985,05	14629,50
985,48	14195,10
985,91	14979,10
986,34	15574,10
986,77	14832,60
987,20	14535,00
987,63	15195,80
988,06	14923,00
988,49	15064,70
988,92	14878,80
989,35	15141,00
989,78	14919,10
990,20	14801,10
990,63	15318,40
991,06	15038,70
991,49	15317,80
991,92	16450,60
992,35	14946,10
992,78	14675,30
993,21	15161,90
993,64	14778,40
994,07	14954,60
994,50	15491,30
994,93	15567,20
995,36	15215,60
995,79	15130,30
996,21	14209,10
996,64	14396,00
997,07	13996,60
997,50	15725,00
997,93	15530,90
998,36	14763,50
998,79	15096,20
999,22	14500,30
999,65	16050,80
1000,07	14963,00
1000,50	15196,20
1000,93	15982,40
1001,36	14592,10
1001,79	15293,00
1002,22	15461,60
1002,65	15058,50
1003,08	15334,00
1003,50	15082,70
1003,93	15418,30
1004,36	14437,70
1004,79	15264,60
1005,22	15043,60
1005,65	15902,80
1006,07	14744,20
1006,50	14242,80
1006,93	15268,40
1007,36	15009,90
1007,79	14664,00
1008,22	14406,30
1008,64	15127,30
1009,07	14861,20
1009,50	17906,40
1009,93	15996,20
1010,36	15754,00
1010,78	15372,20
1011,21	15534,80
1011,64	15799,00
1012,07	15009,10
1012,50	15555,20
1012,92	15048,40
1013,35	15258,60
1013,78	15322,30
1014,21	14349,80
1014,64	15845,80
1015,06	14035,90
1015,49	15415,90
1015,92	14383,70
1016,35	14895,60
1016,77	14235,70
1017,20	15217,10
1017,63	14634,70
1018,06	24748,90
1018,48	14704,50
1018,91	14071,10
1019,34	17045,00
1019,77	15771,20
1020,19	15462,00
1020,62	14787,10
1021,05	14986,40
1021,47	15265,70
1021,90	15256,20
1022,33	15506,30
1022,76	15089,70
1023,18	17824,40
1023,61	15975,00
1024,04	15865,10
1024,46	15508,90
1024,89	15257,50
1025,32	15359,50
1025,75	15700,40
1026,17	14605,00
1026,60	14499,50
1027,03	16801,40
1027,45	15477,80
1027,88	15383,20
1028,31	15160,60
1028,73	15281,90
1029,16	14760,20
1029,59	16866,70
1030,01	15315,60
1030,44	15277,60
1030,87	15514,70
1031,29	16210,20
1031,72	14601,50
1032,15	15426,50
1032,57	15789,80
1033,00	15053,90
1033,42	15975,80
1033,85	14809,70
1034,28	14872,90
1034,70	15604,70
1035,13	15836,40
1035,56	15156,20
1035,98	16698,60
1036,41	15018,90
1036,83	15155,60
1037,26	15416,00
1037,69	14394,40
1038,11	15642,60
1038,54	15817,40
1038,96	15636,20
1039,39	15812,00
1039,82	16207,60
1040,24	14948,30
1040,67	14905,40
1041,09	15365,40
1041,52	14807,40
1041,95	16066,30
1042,37	15887,50
1042,80	15375,10
1043,22	15665,30
1043,65	15035,70
1044,07	15558,50
1044,50	14335,10
1044,92	14727,10
1045,35	14674,00
1045,78	14172,30
1046,20	14825,20
1046,63	15215,30
1047,05	14301,30
1047,48	15028,40
1047,90	15276,80
1048,33	14236,90
1048,75	15439,50
1049,18	15144,60
1049,60	15334,20
1050,03	14590,70
1050,45	14667,60
1050,88	15101,60
1051,30	15427,70
1051,73	16044,20
1052,15	15556,10
1052,58	14847,70
1053,00	14949,10
1053,43	13497,70
1053,85	14769,30
1054,28	13605,70
1054,70	14462,60
1055,13	14193,70
1055,55	14863,20
1055,98	14993,90
1056,40	15968,70
1056,83	15318,60
1057,25	15307,90
1057,68	14625,60
1058,10	17344,00
1058,52	14088,00
1058,95	14841,40
1059,37	14977,70
1059,80	14252,70
1060,22	14332,60
1060,65	14200,00
1061,07	15241,90
1061,50	14608,00
1061,92	14268,60
1062,34	15074,90
1062,77	15389,70
1063,19	14731,80
1063,62	14432,90
1064,04	14204,50
1064,46	15174,90
1064,89	15274,90
1065,31	14390,00
1065,74	14133,80
1066,16	13835,50
1066,58	15188,20
1067,01	14553,00
1067,43	14454,20
1067,86	14692,20
1068,28	14144,50
1068,70	15697,90
1069,13	14489,40
1069,55	14090,70
1069,97	13618,50
1070,40	15029,20
1070,82	15059,70
1071,25	14958,00
1071,67	14149,40
1072,09	14752,90
1072,52	14031,60
1072,94	13683,60
1073,36	13506,40
1073,79	14805,00
1074,21	13979,30
1074,63	13537,90
1075,06	13927,10
1075,48	13945,50
1075,90	14356,50
1076,33	13825,10
1076,75	13775,00
1077,17	14013,90
1077,59	14779,60
1078,02	13942,90
1078,44	14733,40
1078,86	15271,80
1079,29	13068,00
1079,71	14330,50
1080,13	13926,70
1080,56	14061,90
1080,98	14498,50
1081,40	14136,70
1081,82	13846,10
1082,25	14294,80
1082,67	14025,50
1083,09	13974,00
1083,51	14018,40
1083,94	14112,40
1084,36	14716,50
1084,78	14063,00
1085,21	13763,40
1085,63	14948,60
1086,05	13550,10
1086,47	13786,60
1086,89	14275,30
1087,32	13207,50
1087,74	14497,80
1088,16	27646,40
1088,58	14346,00
1089,01	13628,90
1089,43	13676,90
1089,85	13797,60
1090,27	14827,30
1090,69	13969,20
1091,12	13425,40
1091,54	13726,30
1091,96	13738,80
1092,38	13450,60
1092,80	13923,60
1093,23	13577,90
1093,65	13888,50
1094,07	13739,80
1094,49	13834,00
1094,91	13780,20
1095,34	13891,50
1095,76	13557,20
1096,18	13925,10
1096,60	14157,80
1097,02	13237,00
1097,44	13862,20
1097,87	13484,40
1098,29	14248,80
1098,71	14229,10
1099,13	14081,20
1099,55	13698,00
1099,97	13585,30
1100,39	13307,10
1100,82	13533,80
1101,24	13471,30
1101,66	13775,50
1102,08	13110,30
1102,50	13312,70
1102,92	13573,60
1103,34	13654,20
1103,76	13849,50
1104,19	19747,20
1104,61	14612,10
1105,03	12507,20
1105,45	13735,30
1105,87	13515,50
1106,29	13134,30
1106,71	13516,50
1107,13	12453,70
1107,55	12811,60
1107,97	14189,60
1108,39	12657,60
1108,82	13820,90
1109,24	13733,30
1109,66	13738,60
1110,08	12479,90
1110,50	13155,60
1110,92	12567,90
1111,34	13083,60
1111,76	12589,00
1112,18	12753,30
1112,60	12437,70
1113,02	13100,00
1113,44	12699,30
1113,86	12595,70
1114,28	13258,90
1114,70	13513,50
1115,12	12819,30
1115,54	13110,30
1115,96	12837,20
1116,38	13348,90
1116,80	13102,90
1117,22	12747,20
1117,64	12225,10
1118,06	1974,40
1118,48	2218,80
1118,90	2199,10
1119,32	2198,60
>>>>>End Processed Spectral Data<<<<<
