SpectraSuite Data File
++++++++++++++++++++++++++++++++++++
Date: Tue Oct 14 10:42:27 EEST 2014
User: OO Maya
Dark Spectrum Present: No
Reference Spectrum Present: No
Number of Sampled Component Spectra: 1
Spectrometers: MAYP11278
Integration Time (usec): 10000000 (MAYP11278)
Spectra Averaged: 5 (MAYP11278)
Boxcar Smoothing: 0 (MAYP11278)
Correct for Electrical Dark: No (MAYP11278)
Strobe/Lamp Enabled: No (MAYP11278)
Correct for Detector Non-linearity: No (MAYP11278)
Correct for Stray Light: No (MAYP11278)
Number of Pixels in Processed Spectrum: 2068
>>>>>Begin Processed Spectral Data<<<<<
188,14	2315,60
188,62	2228,00
189,09	2197,40
189,57	2197,80
190,05	19969,80
190,53	21532,80
191,01	21853,20
191,49	21876,80
191,97	22902,60
192,44	21894,00
192,92	21323,20
193,40	20726,00
193,88	21791,20
194,36	21725,60
194,84	22288,00
195,31	21486,60
195,79	22830,80
196,27	21543,80
196,75	21918,00
197,23	24750,00
197,70	21819,80
198,18	21068,00
198,66	21740,80
199,14	21114,20
199,62	22353,40
200,09	22858,80
200,57	21645,80
201,05	21849,40
201,53	22762,60
202,01	22705,60
202,48	22775,60
202,96	21075,60
203,44	22427,60
203,92	21378,60
204,40	23129,00
204,87	23408,80
205,35	21560,40
205,83	21539,60
206,31	23610,60
206,78	21885,20
207,26	22600,80
207,74	24919,00
208,22	22387,60
208,69	22964,20
209,17	21917,60
209,65	23081,20
210,13	22840,00
210,60	22196,80
211,08	22131,80
211,56	22816,60
212,04	22304,80
212,51	21560,00
212,99	24271,20
213,47	22893,60
213,95	21867,00
214,42	23860,00
214,90	22625,00
215,38	23928,40
215,85	22678,80
216,33	22933,80
216,81	22951,40
217,29	23069,20
217,76	21701,80
218,24	22336,00
218,72	23895,40
219,19	21002,80
219,67	21689,60
220,15	21795,00
220,62	22429,80
221,10	24841,00
221,58	21780,80
222,05	23447,60
222,53	21812,40
223,01	23352,80
223,49	22095,00
223,96	23281,20
224,44	22267,40
224,92	22012,00
225,39	21522,00
225,87	22274,20
226,35	21800,20
226,82	22499,20
227,30	23577,20
227,77	22273,80
228,25	23048,40
228,73	23062,00
229,20	23001,00
229,68	22175,60
230,16	22544,20
230,63	22027,80
231,11	23223,80
231,59	23271,80
232,06	22598,40
232,54	22813,60
233,02	21653,80
233,49	22646,60
233,97	22825,40
234,44	26306,60
234,92	22873,60
235,40	21925,00
235,87	21624,00
236,35	21256,20
236,82	23631,40
237,30	24810,40
237,78	22032,20
238,25	22675,80
238,73	22767,80
239,20	22768,00
239,68	22412,80
240,16	21382,20
240,63	23153,60
241,11	24071,60
241,58	22802,40
242,06	22302,00
242,53	23503,60
243,01	23732,80
243,49	21512,20
243,96	21731,80
244,44	23538,20
244,91	23960,00
245,39	22254,40
245,86	23814,20
246,34	60024,00
246,82	21466,00
247,29	22791,80
247,77	22604,40
248,24	22823,00
248,72	22931,20
249,19	21075,60
249,67	22633,20
250,14	23377,80
250,62	22876,60
251,09	24149,40
251,57	22805,00
252,04	24768,20
252,52	24023,20
253,00	22179,20
253,47	23905,60
253,95	22720,00
254,42	22549,80
254,90	22988,20
255,37	22893,80
255,85	23476,80
256,32	22205,20
256,80	22935,20
257,27	23310,80
257,75	23790,40
258,22	26057,40
258,70	23007,60
259,17	22229,40
259,65	23027,60
260,12	23311,00
260,59	24367,60
261,07	22519,60
261,54	22244,80
262,02	23796,80
262,49	21968,20
262,97	23010,80
263,44	22498,20
263,92	21510,20
264,39	23422,20
264,87	23853,40
265,34	22346,20
265,82	22920,60
266,29	23230,60
266,76	23585,20
267,24	22491,00
267,71	22676,20
268,19	22953,00
268,66	23157,00
269,14	21066,80
269,61	21709,60
270,09	21780,40
270,56	23115,00
271,03	23696,20
271,51	22213,60
271,98	22745,00
272,46	21518,60
272,93	21658,00
273,40	20956,00
273,88	22718,60
274,35	26467,20
274,83	23187,20
275,30	23442,00
275,78	21951,00
276,25	22510,40
276,72	23148,00
277,20	23297,40
277,67	21294,40
278,14	22157,00
278,62	21077,60
279,09	26227,40
279,57	21703,00
280,04	21529,80
280,51	26549,40
280,99	24238,20
281,46	27078,80
281,93	23016,40
282,41	24538,80
282,88	22856,40
283,36	22987,20
283,83	23365,00
284,30	21971,80
284,78	21881,80
285,25	23619,00
285,72	22824,00
286,20	23188,20
286,67	23108,60
287,14	21453,60
287,62	23242,40
288,09	24326,20
288,56	22476,20
289,04	23516,00
289,51	21051,40
289,98	24419,40
290,46	21930,20
290,93	23164,00
291,40	22059,40
291,88	23084,60
292,35	25292,60
292,82	22219,80
293,29	23972,20
293,77	22214,00
294,24	23287,40
294,71	23187,20
295,19	22169,20
295,66	22610,00
296,13	22993,40
296,61	24756,20
297,08	24539,20
297,55	23490,20
298,02	23276,40
298,50	23148,00
298,97	22305,80
299,44	24544,00
299,91	22608,60
300,39	23320,20
300,86	22324,20
301,33	23860,20
301,81	23853,60
302,28	23742,60
302,75	21802,60
303,22	23527,20
303,70	23665,60
304,17	22150,80
304,64	22281,20
305,11	21941,80
305,58	23042,40
306,06	23276,60
306,53	23135,40
307,00	23596,00
307,47	22338,80
307,95	22426,60
308,42	23100,60
308,89	22378,20
309,36	23799,40
309,83	23780,60
310,31	23228,40
310,78	22883,00
311,25	23389,20
311,72	22191,80
312,20	24055,40
312,67	22764,80
313,14	24739,80
313,61	22290,80
314,08	22526,40
314,56	23134,60
315,03	22425,00
315,50	22261,80
315,97	23913,20
316,44	23481,80
316,91	23259,20
317,39	23648,60
317,86	23214,60
318,33	26107,40
318,80	22975,60
319,27	22751,00
319,74	21672,20
320,22	23359,40
320,69	24911,20
321,16	23842,40
321,63	22633,80
322,10	21372,60
322,57	22006,80
323,04	24876,60
323,52	22848,60
323,99	26077,00
324,46	21838,20
324,93	23583,00
325,40	23261,80
325,87	23303,60
326,34	23523,40
326,82	23724,60
327,29	25044,80
327,76	25337,00
328,23	25713,60
328,70	25783,60
329,17	25609,20
329,64	25533,40
330,11	25673,40
330,58	25342,20
331,05	26859,60
331,53	26441,80
332,00	27667,20
332,47	25241,80
332,94	28103,80
333,41	27116,60
333,88	27152,00
334,35	28083,60
334,82	27050,00
335,29	27515,80
335,76	31275,60
336,23	26509,20
336,70	27547,00
337,18	27222,40
337,65	27856,40
338,12	27268,40
338,59	27430,20
339,06	29482,60
339,53	28665,80
340,00	26864,00
340,47	26888,60
340,94	27004,40
341,41	28235,00
341,88	29071,80
342,35	27565,20
342,82	28299,80
343,29	28905,00
343,76	28532,80
344,23	27970,20
344,70	28299,60
345,17	27705,00
345,64	28475,20
346,11	29151,40
346,58	28046,00
347,05	28022,20
347,52	30528,40
347,99	28383,20
348,46	30167,40
348,93	29374,00
349,40	27997,20
349,87	29577,80
350,34	30255,60
350,81	29654,80
351,28	28598,60
351,75	29880,00
352,22	31514,20
352,69	29781,60
353,16	29396,60
353,63	29870,80
354,10	30574,20
354,57	30254,60
355,04	30841,00
355,51	30570,20
355,98	32179,00
356,45	29911,00
356,92	32388,00
357,39	29905,20
357,86	33125,20
358,33	31537,00
358,80	29692,60
359,27	29961,80
359,74	30373,20
360,21	30541,80
360,68	32001,80
361,14	32700,60
361,61	30820,40
362,08	31170,40
362,55	31437,40
363,02	31118,00
363,49	31214,40
363,96	34034,40
364,43	32259,80
364,90	30898,80
365,37	32316,00
365,84	31392,20
366,31	30741,20
366,77	32184,00
367,24	31984,60
367,71	49081,20
368,18	30334,80
368,65	31010,20
369,12	32754,60
369,59	30964,80
370,06	33007,40
370,53	32399,00
370,99	31724,20
371,46	40537,80
371,93	32667,40
372,40	31596,80
372,87	31015,40
373,34	31657,40
373,81	32516,60
374,27	31135,80
374,74	31383,00
375,21	32475,40
375,68	30511,00
376,15	33405,20
376,62	31379,00
377,09	30715,00
377,55	30486,20
378,02	32228,80
378,49	31818,60
378,96	31375,20
379,43	31376,00
379,90	31169,00
380,36	31738,60
380,83	32532,60
381,30	30920,40
381,77	32211,60
382,24	31878,40
382,71	28887,20
383,17	30132,80
383,64	29229,80
384,11	30479,60
384,58	29097,20
385,05	34489,80
385,51	28597,00
385,98	27867,80
386,45	27636,00
386,92	29564,60
387,39	26566,20
387,85	25915,40
388,32	27750,00
388,79	26845,00
389,26	27459,20
389,72	25312,80
390,19	26266,20
390,66	25620,60
391,13	25798,20
391,59	25125,60
392,06	25039,40
392,53	24905,00
393,00	24211,60
393,46	23944,80
393,93	26696,60
394,40	23877,00
394,87	25090,00
395,33	23005,20
395,80	24366,60
396,27	28863,40
396,74	22134,60
397,20	24025,00
397,67	24209,40
398,14	22214,00
398,61	23194,00
399,07	22665,00
399,54	22221,40
400,01	24246,40
400,47	22058,60
400,94	22859,20
401,41	22590,60
401,88	23466,60
402,34	23370,40
402,81	23091,80
403,28	22202,80
403,74	24762,40
404,21	22641,20
404,68	24330,00
405,14	25181,40
405,61	24341,60
406,08	22040,40
406,54	23814,40
407,01	23578,40
407,48	25362,00
407,95	22996,60
408,41	23263,20
408,88	23753,80
409,35	21988,60
409,81	24192,60
410,28	22107,80
410,74	24384,60
411,21	22268,00
411,68	24511,60
412,14	22663,60
412,61	21254,80
413,08	23507,40
413,54	22445,80
414,01	23371,20
414,48	23609,20
414,94	24828,20
415,41	22747,00
415,88	24686,80
416,34	23249,40
416,81	23047,00
417,27	25037,00
417,74	23416,60
418,21	22730,40
418,67	23086,40
419,14	23140,80
419,60	23977,40
420,07	22177,40
420,54	23852,20
421,00	21802,80
421,47	22887,00
421,93	22420,20
422,40	23486,60
422,87	22496,40
423,33	22813,20
423,80	23375,60
424,26	23909,00
424,73	22963,80
425,19	23935,40
425,66	22923,60
426,13	24481,40
426,59	22598,00
427,06	24391,20
427,52	23837,60
427,99	24064,20
428,45	22020,20
428,92	24125,40
429,38	23523,80
429,85	22961,40
430,32	23342,40
430,78	26579,60
431,25	21709,80
431,71	22809,20
432,18	24748,00
432,64	23967,00
433,11	22791,20
433,57	22497,60
434,04	22819,40
434,50	22581,00
434,97	23638,00
435,43	21873,20
435,90	23688,80
436,36	23105,40
436,83	21918,20
437,29	23727,00
437,76	23384,20
438,22	23276,40
438,69	22331,60
439,15	22642,60
439,62	27307,20
440,08	23317,00
440,55	23941,80
441,01	24463,00
441,48	22263,60
441,94	22647,40
442,41	25852,00
442,87	22003,80
443,34	23376,00
443,80	23300,40
444,27	21805,00
444,73	24670,40
445,20	23382,00
445,66	22958,60
446,12	22842,80
446,59	23378,40
447,05	22737,00
447,52	22996,60
447,98	22314,80
448,45	22179,80
448,91	23519,00
449,38	23617,00
449,84	22790,40
450,30	22064,20
450,77	21953,00
451,23	22146,60
451,70	23094,40
452,16	23663,80
452,63	22183,40
453,09	24065,60
453,55	22773,80
454,02	22782,40
454,48	23018,40
454,95	23497,00
455,41	22445,40
455,87	23002,40
456,34	23794,60
456,80	22288,60
457,27	24319,20
457,73	22725,00
458,19	22718,60
458,66	21587,20
459,12	23070,00
459,58	22595,00
460,05	23030,60
460,51	22195,20
460,98	21720,20
461,44	24442,20
461,90	23709,80
462,37	21899,40
462,83	21486,80
463,29	23765,80
463,76	22286,20
464,22	22913,60
464,68	22777,20
465,15	21713,00
465,61	22029,40
466,07	23591,00
466,54	22604,80
467,00	23065,80
467,46	22951,40
467,93	22377,00
468,39	22851,40
468,85	23073,80
469,32	22204,80
469,78	21654,80
470,24	23094,20
470,71	22658,00
471,17	21942,40
471,63	22321,20
472,10	21519,60
472,56	21836,40
473,02	22064,00
473,48	23789,80
473,95	22159,60
474,41	21342,20
474,87	22172,20
475,34	21206,60
475,80	22489,40
476,26	22152,00
476,72	22513,80
477,19	22126,40
477,65	22262,60
478,11	23773,60
478,58	22416,80
479,04	23163,80
479,50	21225,00
479,96	24054,60
480,43	22493,60
480,89	22359,80
481,35	21412,20
481,81	21959,40
482,28	22109,00
482,74	20717,40
483,20	21556,00
483,66	20524,20
484,13	21588,80
484,59	23601,00
485,05	22093,60
485,51	21790,40
485,97	20247,40
486,44	21489,20
486,90	20154,40
487,36	22061,80
487,82	20350,00
488,29	20257,40
488,75	20857,00
489,21	21837,80
489,67	21592,20
490,13	22705,60
490,60	20503,40
491,06	21574,60
491,52	20100,00
491,98	20829,00
492,44	19959,60
492,90	22502,60
493,37	21601,40
493,83	21477,80
494,29	20550,40
494,75	21015,60
495,21	20691,80
495,67	20424,20
496,14	21353,20
496,60	20708,60
497,06	21159,60
497,52	23191,80
497,98	22546,60
498,44	20592,80
498,91	21417,40
499,37	20885,20
499,83	24062,00
500,29	21273,00
500,75	20694,40
501,21	20995,80
501,67	20749,60
502,14	21829,00
502,60	21059,00
503,06	21125,60
503,52	21021,60
503,98	21704,20
504,44	20551,60
504,90	21623,60
505,36	21419,60
505,82	20354,20
506,29	21025,80
506,75	22048,80
507,21	21073,40
507,67	21693,00
508,13	21470,80
508,59	20337,80
509,05	20292,80
509,51	19714,60
509,97	20777,20
510,43	21011,80
510,89	20372,40
511,35	22448,40
511,82	22343,20
512,28	20365,60
512,74	19645,00
513,20	20197,40
513,66	21617,60
514,12	19299,60
514,58	21947,00
515,04	23171,80
515,50	19568,20
515,96	21360,80
516,42	22204,20
516,88	21980,00
517,34	23849,20
517,80	21476,40
518,26	21098,60
518,72	25104,40
519,18	21147,00
519,64	20381,40
520,10	19883,40
520,56	20197,00
521,02	21261,20
521,48	21685,60
521,94	21815,20
522,40	21034,80
522,86	20014,40
523,32	22956,20
523,78	22082,20
524,24	20772,80
524,70	23311,00
525,16	21779,00
525,62	21485,80
526,08	22693,00
526,54	21349,40
527,00	21162,60
527,46	20399,80
527,92	20791,00
528,38	21995,40
528,84	21625,40
529,30	20761,20
529,76	20133,40
530,22	21642,80
530,68	21816,20
531,14	19841,80
531,60	22337,20
532,06	21049,00
532,52	21017,80
532,98	21138,20
533,44	21643,80
533,90	20787,80
534,36	20001,00
534,82	20954,60
535,28	20497,40
535,73	21317,00
536,19	20541,40
536,65	21642,40
537,11	20118,60
537,57	21753,40
538,03	20996,00
538,49	21047,80
538,95	22999,60
539,41	21843,80
539,87	27235,60
540,33	19854,20
540,79	22951,80
541,24	21299,20
541,70	19988,60
542,16	21684,60
542,62	21549,40
543,08	20622,60
543,54	24179,00
544,00	19911,00
544,46	23398,20
544,91	21876,60
545,37	20896,60
545,83	20660,80
546,29	22025,80
546,75	21007,40
547,21	21488,20
547,67	21954,80
548,13	21391,80
548,58	20867,20
549,04	20650,20
549,50	20123,00
549,96	23726,20
550,42	20823,00
550,88	19936,00
551,33	21434,40
551,79	21177,00
552,25	23124,00
552,71	21400,40
553,17	20226,80
553,63	21636,40
554,08	20856,20
554,54	20071,80
555,00	21457,80
555,46	21267,60
555,92	23254,00
556,37	21311,20
556,83	22613,20
557,29	19551,60
557,75	21583,80
558,21	23655,80
558,66	20667,60
559,12	20921,20
559,58	20309,40
560,04	20437,40
560,50	20173,40
560,95	21010,80
561,41	20921,80
561,87	20923,60
562,33	20417,20
562,78	20380,20
563,24	21145,00
563,70	22291,80
564,16	20230,80
564,61	21320,80
565,07	20827,40
565,53	20889,20
565,99	21331,40
566,44	22547,40
566,90	20816,20
567,36	20583,80
567,82	21182,60
568,27	22103,00
568,73	20561,00
569,19	21025,60
569,65	21774,00
570,10	21284,80
570,56	20999,00
571,02	21987,20
571,47	21882,20
571,93	21057,60
572,39	21280,60
572,85	21593,00
573,30	20490,20
573,76	20608,60
574,22	21271,00
574,67	22868,00
575,13	22173,60
575,59	20005,60
576,04	21447,00
576,50	19413,20
576,96	22495,80
577,42	20850,40
577,87	20734,80
578,33	20009,80
578,79	22593,80
579,24	20902,20
579,70	20690,60
580,16	21451,60
580,61	21471,20
581,07	21087,60
581,53	21170,20
581,98	21376,20
582,44	20940,60
582,89	19978,80
583,35	21026,80
583,81	21499,00
584,26	20985,80
584,72	21879,00
585,18	20525,20
585,63	24198,80
586,09	20952,80
586,55	20807,40
587,00	21141,00
587,46	21030,40
587,91	22298,80
588,37	20164,20
588,83	21813,40
589,28	20943,20
589,74	20597,40
590,19	21606,60
590,65	22028,40
591,11	20775,80
591,56	19793,00
592,02	22725,00
592,47	20518,80
592,93	21553,60
593,39	21220,80
593,84	22152,80
594,30	21248,00
594,75	21070,40
595,21	22689,20
595,66	20894,20
596,12	20195,80
596,58	22904,40
597,03	22039,40
597,49	22562,40
597,94	21555,60
598,40	19903,00
598,85	21213,00
599,31	22815,20
599,76	20513,40
600,22	21822,00
600,67	22459,80
601,13	21805,60
601,59	22091,40
602,04	19932,40
602,50	24753,60
602,95	20797,40
603,41	21360,60
603,86	19947,00
604,32	19849,80
604,77	21825,00
605,23	20926,20
605,68	21836,60
606,14	21354,20
606,59	19764,00
607,05	21284,40
607,50	20752,80
607,96	21352,20
608,41	21934,00
608,87	21221,40
609,32	24146,60
609,78	22198,40
610,23	21087,80
610,69	20737,40
611,14	21398,20
611,60	20076,20
612,05	23502,20
612,50	21947,40
612,96	21309,40
613,41	24712,60
613,87	20076,20
614,32	20085,00
614,78	20199,80
615,23	20146,20
615,69	20902,00
616,14	21237,80
616,59	20239,80
617,05	21065,80
617,50	21105,80
617,96	22124,80
618,41	20563,80
618,87	20832,20
619,32	21021,20
619,77	22088,00
620,23	20956,40
620,68	22040,40
621,14	22337,80
621,59	21259,80
622,05	22307,80
622,50	22729,00
622,95	22373,00
623,41	20607,80
623,86	20482,00
624,32	22344,40
624,77	19946,80
625,22	21036,00
625,68	21440,80
626,13	20438,20
626,58	21178,40
627,04	21544,60
627,49	20197,00
627,95	21981,20
628,40	22226,60
628,85	19885,80
629,31	21043,40
629,76	21371,20
630,21	20547,00
630,67	21874,40
631,12	21225,40
631,57	22105,20
632,03	21672,40
632,48	22404,80
632,93	20585,60
633,39	20944,60
633,84	20679,00
634,29	20754,20
634,75	20366,80
635,20	20826,20
635,65	20681,40
636,11	19876,40
636,56	21282,40
637,01	21073,60
637,47	20344,00
637,92	22110,60
638,37	22284,20
638,83	20747,80
639,28	21377,80
639,73	20250,80
640,18	19711,40
640,64	21571,20
641,09	22360,60
641,54	19943,40
642,00	20790,00
642,45	20863,00
642,90	19714,80
643,35	20707,40
643,81	22126,60
644,26	20510,40
644,71	20200,00
645,17	20747,60
645,62	20335,60
646,07	21149,60
646,52	21346,60
646,98	21792,40
647,43	22018,40
647,88	21368,60
648,33	21632,40
648,79	20131,80
649,24	22608,60
649,69	21740,00
650,14	26048,40
650,59	20360,20
651,05	20363,60
651,50	20608,40
651,95	21497,80
652,40	20280,80
652,86	21249,00
653,31	20608,80
653,76	20566,00
654,21	21272,20
654,66	21570,80
655,12	20948,40
655,57	20070,00
656,02	21951,60
656,47	20485,60
656,92	21150,40
657,38	21891,80
657,83	21851,60
658,28	20362,60
658,73	21342,20
659,18	20288,80
659,63	26278,60
660,09	20755,80
660,54	22547,60
660,99	21054,80
661,44	20367,20
661,89	20987,40
662,34	20292,00
662,80	19621,00
663,25	21616,20
663,70	20801,20
664,15	20747,80
664,60	20993,00
665,05	20075,40
665,50	21393,80
665,96	19964,20
666,41	21344,20
666,86	21225,20
667,31	24167,00
667,76	22716,80
668,21	20424,80
668,66	21531,00
669,11	20284,20
669,56	23919,60
670,02	19516,80
670,47	20588,80
670,92	22499,80
671,37	21267,40
671,82	22926,80
672,27	23900,60
672,72	21023,00
673,17	21369,80
673,62	22567,60
674,07	25190,20
674,52	21422,60
674,98	21698,20
675,43	19825,00
675,88	20088,40
676,33	21375,60
676,78	20953,80
677,23	20930,00
677,68	20725,80
678,13	24347,00
678,58	20534,20
679,03	20938,00
679,48	21563,20
679,93	20655,40
680,38	21285,60
680,83	21279,20
681,28	19426,20
681,73	19419,60
682,18	20826,60
682,63	21188,80
683,08	21909,60
683,53	21664,60
683,98	21409,20
684,43	22597,40
684,89	21723,80
685,34	21331,00
685,79	21647,80
686,24	20991,60
686,69	20378,40
687,14	21452,60
687,59	20758,80
688,04	21400,80
688,49	21006,00
688,93	24397,60
689,38	22011,00
689,83	19756,00
690,28	20915,20
690,73	21114,60
691,18	20001,20
691,63	21052,60
692,08	19916,40
692,53	21202,00
692,98	20954,40
693,43	21882,40
693,88	21700,40
694,33	21316,80
694,78	21545,00
695,23	26438,00
695,68	21423,20
696,13	21347,20
696,58	23501,60
697,03	21136,40
697,48	20677,60
697,93	21728,40
698,38	20466,40
698,82	21883,60
699,27	22068,80
699,72	20678,80
700,17	21010,20
700,62	21936,20
701,07	22276,60
701,52	25937,00
701,97	20039,80
702,42	23008,80
702,87	20525,00
703,32	20813,80
703,76	21517,40
704,21	21093,80
704,66	20657,60
705,11	22609,80
705,56	22450,20
706,01	22358,60
706,46	20100,40
706,91	22005,40
707,36	21164,40
707,80	21076,40
708,25	21522,80
708,70	22287,80
709,15	21479,60
709,60	20840,00
710,05	21093,40
710,50	21299,80
710,94	20680,80
711,39	21978,20
711,84	21378,60
712,29	21449,20
712,74	20594,60
713,19	23734,00
713,63	21200,40
714,08	21454,80
714,53	22939,60
714,98	22254,00
715,43	21071,40
715,87	21426,40
716,32	20861,00
716,77	20903,20
717,22	20231,00
717,67	19987,80
718,12	21850,40
718,56	23343,40
719,01	20326,60
719,46	20206,40
719,91	21446,20
720,35	21111,20
720,80	20652,60
721,25	21500,40
721,70	20751,40
722,15	21737,60
722,59	21096,40
723,04	20055,60
723,49	19805,00
723,94	21382,00
724,38	19693,80
724,83	21725,20
725,28	19643,20
725,73	21094,20
726,17	21048,20
726,62	21382,20
727,07	23509,80
727,52	20453,60
727,96	22948,60
728,41	21826,00
728,86	20961,00
729,31	22766,80
729,75	20691,20
730,20	22289,00
730,65	20381,40
731,09	21538,40
731,54	21772,80
731,99	21618,40
732,44	21782,80
732,88	20574,00
733,33	22127,00
733,78	21555,80
734,22	20632,40
734,67	22246,40
735,12	22071,20
735,57	21511,20
736,01	24690,20
736,46	20593,00
736,91	21309,40
737,35	22308,60
737,80	22195,40
738,25	21456,40
738,69	21007,80
739,14	21444,60
739,59	20206,60
740,03	22640,00
740,48	21960,40
740,93	20549,20
741,37	21764,60
741,82	22070,80
742,26	21334,80
742,71	21409,20
743,16	20330,00
743,60	20515,00
744,05	21169,80
744,50	22443,40
744,94	22490,00
745,39	21925,60
745,84	22365,80
746,28	23124,40
746,73	19359,00
747,17	20426,80
747,62	20046,40
748,07	21668,80
748,51	21183,60
748,96	20833,40
749,40	21650,00
749,85	24530,20
750,30	21573,00
750,74	21142,40
751,19	20055,00
751,63	20848,60
752,08	20811,40
752,53	21094,60
752,97	23605,40
753,42	20683,60
753,86	21070,40
754,31	20057,00
754,75	20901,40
755,20	20204,40
755,64	21142,20
756,09	21421,40
756,54	22670,20
756,98	21034,00
757,43	22858,60
757,87	21422,00
758,32	21127,20
758,76	21129,40
759,21	20975,40
759,65	20323,20
760,10	21064,20
760,54	21800,20
760,99	21292,20
761,43	22033,00
761,88	22841,40
762,33	20959,00
762,77	20061,40
763,22	20980,60
763,66	22180,20
764,11	21184,40
764,55	20224,80
765,00	20795,40
765,44	21757,20
765,89	20504,60
766,33	20154,00
766,77	20712,60
767,22	21323,60
767,66	21446,80
768,11	21729,60
768,55	22168,60
769,00	21108,20
769,44	23611,40
769,89	20354,60
770,33	21183,00
770,78	20574,00
771,22	20216,20
771,67	22008,80
772,11	21558,60
772,56	21690,40
773,00	19845,60
773,44	20911,60
773,89	20695,00
774,33	19638,00
774,78	21302,60
775,22	20496,20
775,67	21411,80
776,11	21323,80
776,55	20397,80
777,00	21057,80
777,44	21053,20
777,89	21671,80
778,33	22108,60
778,77	20828,40
779,22	21396,00
779,66	24728,40
780,11	22993,60
780,55	21478,20
780,99	22635,20
781,44	21908,80
781,88	20480,80
782,33	21779,40
782,77	20306,60
783,21	20943,20
783,66	22071,60
784,10	22341,40
784,55	21268,20
784,99	20908,00
785,43	21049,80
785,88	20649,20
786,32	22029,80
786,76	22549,60
787,21	22632,00
787,65	20353,40
788,09	20759,60
788,54	21555,00
788,98	20580,20
789,42	20987,80
789,87	20802,40
790,31	21559,00
790,75	20434,00
791,20	20693,20
791,64	22623,00
792,08	20901,40
792,53	21279,00
792,97	20732,60
793,41	26430,20
793,86	22577,60
794,30	21492,80
794,74	21634,40
795,18	21321,00
795,63	20419,00
796,07	21795,60
796,51	21024,60
796,96	21246,60
797,40	20760,40
797,84	20366,40
798,28	21214,80
798,73	22561,40
799,17	21569,40
799,61	20360,40
800,06	23353,60
800,50	21629,00
800,94	20526,80
801,38	21823,00
801,83	21555,60
802,27	20518,80
802,71	22632,00
803,15	23480,60
803,60	22061,00
804,04	21719,40
804,48	21161,60
804,92	20797,20
805,37	23277,20
805,81	24009,80
806,25	23498,20
806,69	22025,40
807,13	23918,80
807,58	21001,20
808,02	21401,00
808,46	20242,80
808,90	21972,00
809,34	21463,40
809,79	20739,20
810,23	20456,80
810,67	21895,60
811,11	22866,60
811,55	25495,80
812,00	20825,40
812,44	20560,20
812,88	22159,20
813,32	23470,20
813,76	22437,20
814,21	21493,60
814,65	22363,20
815,09	22060,00
815,53	21696,80
815,97	20938,20
816,41	20334,60
816,85	20794,60
817,30	22216,20
817,74	21448,60
818,18	22455,40
818,62	20792,40
819,06	22104,00
819,50	22622,40
819,94	21046,60
820,39	21956,20
820,83	20905,80
821,27	21326,80
821,71	20465,40
822,15	23168,80
822,59	20490,80
823,03	21418,40
823,47	21614,20
823,92	20366,20
824,36	21431,40
824,80	21350,20
825,24	21638,20
825,68	21667,60
826,12	20333,40
826,56	20924,40
827,00	19521,00
827,44	21394,40
827,88	22174,20
828,32	22863,40
828,77	20748,40
829,21	22371,40
829,65	21751,80
830,09	20698,60
830,53	23287,80
830,97	20927,80
831,41	24040,60
831,85	22552,40
832,29	22202,40
832,73	20022,40
833,17	21129,20
833,61	21108,00
834,05	23163,00
834,49	22097,60
834,93	21245,20
835,37	20784,80
835,81	22505,20
836,25	21268,00
836,69	21696,20
837,13	21169,60
837,57	22188,00
838,01	20539,60
838,45	20675,40
838,89	21562,20
839,33	21314,60
839,77	23079,60
840,21	23886,20
840,65	21545,60
841,09	22879,60
841,53	19644,60
841,97	20710,80
842,41	20073,40
842,85	21001,40
843,29	22054,80
843,73	21449,40
844,17	22095,60
844,61	21310,60
845,05	20511,40
845,49	22010,80
845,93	21085,80
846,37	22082,80
846,81	20711,60
847,25	20551,80
847,69	21442,60
848,13	20603,20
848,57	20910,40
849,01	20833,40
849,45	21926,60
849,89	22700,80
850,32	22132,20
850,76	20972,00
851,20	22293,20
851,64	20525,60
852,08	21647,00
852,52	22541,00
852,96	20803,60
853,40	20789,20
853,84	22040,60
854,28	20062,60
854,72	22361,00
855,16	20097,00
855,59	20699,00
856,03	22507,20
856,47	23141,80
856,91	21344,00
857,35	21730,00
857,79	21342,00
858,23	20086,60
858,67	22921,40
859,10	19575,20
859,54	20440,20
859,98	20684,60
860,42	21113,60
860,86	21623,00
861,30	21949,80
861,74	20658,20
862,17	21114,40
862,61	21440,20
863,05	20642,40
863,49	20783,40
863,93	22005,60
864,37	20450,00
864,80	21067,60
865,24	21068,20
865,68	19978,80
866,12	21087,80
866,56	19720,00
867,00	22071,80
867,43	20238,80
867,87	21566,20
868,31	21004,00
868,75	20650,40
869,19	21479,00
869,62	21124,20
870,06	22949,40
870,50	24153,00
870,94	19959,00
871,38	20850,60
871,81	21050,00
872,25	20361,60
872,69	21373,00
873,13	21703,00
873,56	21017,60
874,00	22422,80
874,44	22001,20
874,88	20967,60
875,31	20144,80
875,75	22481,20
876,19	19566,80
876,63	21705,80
877,06	20953,40
877,50	20976,80
877,94	21142,40
878,38	21150,80
878,81	21436,60
879,25	20804,20
879,69	23074,80
880,13	20391,40
880,56	20004,20
881,00	20628,00
881,44	21260,80
881,87	21913,60
882,31	20894,40
882,75	20924,00
883,19	20755,60
883,62	20754,80
884,06	20100,80
884,50	21750,20
884,93	21237,80
885,37	21651,40
885,81	22084,20
886,24	20853,80
886,68	20404,80
887,12	23104,60
887,55	20195,80
887,99	20174,40
888,43	20826,80
888,86	20613,40
889,30	24358,40
889,74	19829,20
890,17	22035,80
890,61	20488,80
891,05	21689,80
891,48	21633,60
891,92	19837,00
892,36	20371,20
892,79	20755,00
893,23	20068,00
893,67	20687,20
894,10	21567,60
894,54	20842,20
894,97	21892,40
895,41	20688,60
895,85	20123,40
896,28	21187,20
896,72	21307,60
897,16	20273,40
897,59	19885,60
898,03	20122,00
898,46	21390,40
898,90	22363,40
899,34	20346,60
899,77	20261,60
900,21	20454,60
900,64	22227,60
901,08	21541,00
901,51	20632,00
901,95	23247,00
902,39	23345,40
902,82	20277,60
903,26	20607,20
903,69	23012,80
904,13	20220,60
904,56	21459,20
905,00	20360,20
905,43	20501,40
905,87	19881,00
906,31	22403,20
906,74	20997,80
907,18	22140,40
907,61	21344,80
908,05	20827,60
908,48	21677,20
908,92	22820,40
909,35	20815,20
909,79	19767,20
910,22	21438,20
910,66	21491,00
911,09	20616,40
911,53	20234,80
911,96	20546,80
912,40	21220,20
912,83	20664,60
913,27	21461,80
913,70	21460,20
914,14	20845,20
914,57	19866,40
915,01	19957,80
915,44	20580,80
915,88	20360,40
916,31	21877,40
916,75	20455,40
917,18	22097,00
917,62	20428,80
918,05	21941,20
918,49	20206,00
918,92	20747,80
919,35	20494,40
919,79	21486,60
920,22	21729,00
920,66	20866,20
921,09	22788,40
921,53	21480,80
921,96	20601,60
922,40	19898,60
922,83	19926,40
923,26	21144,00
923,70	22711,60
924,13	21659,00
924,57	19450,80
925,00	21396,80
925,44	20012,80
925,87	21773,00
926,30	23495,40
926,74	20620,20
927,17	21550,60
927,61	19710,00
928,04	23460,20
928,47	20876,80
928,91	19881,60
929,34	21996,40
929,77	20336,00
930,21	21212,40
930,64	21868,80
931,08	20107,80
931,51	21491,00
931,94	19306,20
932,38	22856,40
932,81	21955,80
933,24	24133,40
933,68	20755,20
934,11	22133,20
934,54	21905,00
934,98	21766,80
935,41	21244,40
935,84	19763,20
936,28	20611,80
936,71	20066,00
937,14	21250,20
937,58	19910,00
938,01	21525,00
938,44	20396,00
938,88	20465,00
939,31	21577,20
939,74	19996,80
940,18	20922,20
940,61	21941,80
941,04	23324,00
941,48	20324,20
941,91	22117,20
942,34	19995,00
942,77	20400,60
943,21	21617,60
943,64	19696,20
944,07	19532,40
944,51	21577,60
944,94	21409,60
945,37	21446,80
945,80	20839,80
946,24	21168,00
946,67	21147,20
947,10	22295,80
947,53	20669,40
947,97	20969,80
948,40	21486,20
948,83	19611,60
949,26	19783,40
949,70	19743,20
950,13	24027,20
950,56	22408,60
950,99	20442,00
951,43	20343,80
951,86	21321,40
952,29	19626,40
952,72	21754,60
953,15	20321,40
953,59	23061,20
954,02	19685,40
954,45	20226,00
954,88	20459,00
955,31	20262,80
955,75	20475,40
956,18	21360,60
956,61	19890,00
957,04	21546,00
957,47	24248,00
957,91	19773,00
958,34	21385,60
958,77	21064,40
959,20	20321,20
959,63	20257,60
960,06	20246,40
960,50	19095,40
960,93	20397,20
961,36	21455,20
961,79	21481,80
962,22	21995,80
962,65	21603,20
963,09	20222,80
963,52	21012,40
963,95	20393,00
964,38	20976,00
964,81	20613,20
965,24	20211,20
965,67	21924,20
966,10	20293,20
966,54	20738,80
966,97	21486,40
967,40	20199,40
967,83	20366,40
968,26	21993,80
968,69	25769,00
969,12	21698,60
969,55	20675,20
969,98	21347,20
970,42	19968,60
970,85	20343,00
971,28	21355,60
971,71	20370,00
972,14	20864,80
972,57	19818,20
973,00	20102,40
973,43	20385,00
973,86	21455,00
974,29	20525,20
974,72	21682,40
975,15	21148,80
975,58	20137,60
976,01	20215,20
976,45	20107,40
976,88	20956,40
977,31	19912,20
977,74	21630,80
978,17	20912,20
978,60	20571,80
979,03	20542,80
979,46	20425,80
979,89	21804,40
980,32	21531,00
980,75	20302,40
981,18	21118,20
981,61	21931,60
982,04	20821,80
982,47	20787,60
982,90	20283,60
983,33	20490,20
983,76	20161,20
984,19	21890,60
984,62	21654,60
985,05	19857,60
985,48	19152,40
985,91	20676,80
986,34	21704,80
986,77	20349,80
987,20	20001,80
987,63	21136,00
988,06	20709,40
988,49	20992,00
988,92	20663,00
989,35	21038,40
989,78	20710,80
990,20	20418,00
990,63	21206,00
991,06	20689,00
991,49	21176,40
991,92	22850,80
992,35	20274,80
992,78	19913,60
993,21	20622,00
993,64	20025,60
994,07	20334,00
994,50	21252,00
994,93	21486,00
995,36	21050,60
995,79	20906,40
996,21	19382,00
996,64	19743,40
997,07	19046,80
997,50	21862,60
997,93	21576,00
998,36	20347,60
998,79	20884,40
999,22	19850,20
999,65	22452,40
1000,07	20624,60
1000,50	20929,20
1000,93	22234,40
1001,36	19897,00
1001,79	21002,80
1002,22	21292,60
1002,65	20687,80
1003,08	21107,80
1003,50	20694,60
1003,93	21328,60
1004,36	19806,80
1004,79	21280,80
1005,22	20772,60
1005,65	22362,40
1006,07	20445,60
1006,50	19573,80
1006,93	21234,00
1007,36	20682,60
1007,79	20082,20
1008,22	19499,80
1008,64	20548,20
1009,07	20200,80
1009,50	25204,80
1009,93	22048,00
1010,36	21781,60
1010,78	21122,60
1011,21	21400,40
1011,64	21889,60
1012,07	20554,80
1012,50	21458,60
1012,92	20725,60
1013,35	21147,40
1013,78	21315,40
1014,21	19769,60
1014,64	22402,80
1015,06	19476,40
1015,49	21761,40
1015,92	20099,20
1016,35	20883,40
1016,77	19913,80
1017,20	21417,00
1017,63	20409,40
1018,06	41179,80
1018,48	20518,00
1018,91	19308,60
1019,34	24178,60
1019,77	22071,20
1020,19	21713,00
1020,62	20473,20
1021,05	20761,80
1021,47	21221,60
1021,90	21131,80
1022,33	21453,20
1022,76	20815,20
1023,18	25258,00
1023,61	22241,80
1024,04	21915,40
1024,46	21520,00
1024,89	21006,60
1025,32	21242,00
1025,75	21806,20
1026,17	20090,20
1026,60	19966,40
1027,03	23763,00
1027,45	21684,00
1027,88	21369,20
1028,31	20920,60
1028,73	21200,40
1029,16	20186,80
1029,59	23596,60
1030,01	20987,00
1030,44	20871,20
1030,87	21182,60
1031,29	22449,80
1031,72	19716,40
1032,15	21085,60
1032,57	21718,00
1033,00	20522,60
1033,42	21939,60
1033,85	20081,20
1034,28	20104,40
1034,70	21381,80
1035,13	21800,00
1035,56	20520,20
1035,98	22930,20
1036,41	20318,20
1036,83	20514,80
1037,26	21062,20
1037,69	19565,80
1038,11	21742,00
1038,54	21958,60
1038,96	21694,40
1039,39	22101,60
1039,82	22875,20
1040,24	20719,40
1040,67	20626,80
1041,09	21313,20
1041,52	20510,20
1041,95	22664,20
1042,37	22390,00
1042,80	21597,20
1043,22	22108,00
1043,65	21075,40
1044,07	22016,40
1044,50	20098,60
1044,92	20701,40
1045,35	20660,80
1045,78	19827,80
1046,20	20791,60
1046,63	21704,60
1047,05	20139,20
1047,48	21483,00
1047,90	21837,60
1048,33	20208,40
1048,75	22096,40
1049,18	21654,60
1049,60	21864,40
1050,03	20681,20
1050,45	20796,00
1050,88	21488,20
1051,30	22129,60
1051,73	23115,60
1052,15	22281,40
1052,58	21224,80
1053,00	21450,80
1053,43	19041,40
1053,85	21037,60
1054,28	19341,00
1054,70	20658,00
1055,13	20312,60
1055,55	21296,00
1055,98	21630,60
1056,40	23248,80
1056,83	22193,40
1057,25	22182,60
1057,68	21011,60
1058,10	25614,60
1058,52	20288,20
1058,95	21447,60
1059,37	21608,00
1059,80	20558,00
1060,22	20729,80
1060,65	20426,20
1061,07	22038,00
1061,50	21107,00
1061,92	20509,60
1062,34	21980,00
1062,77	22392,40
1063,19	21289,20
1063,62	20798,80
1064,04	20297,60
1064,46	21746,40
1064,89	22039,40
1065,31	20579,80
1065,74	20203,60
1066,16	19707,80
1066,58	22029,40
1067,01	20955,80
1067,43	20905,00
1067,86	21244,60
1068,28	20447,60
1068,70	22959,40
1069,13	21051,40
1069,55	20447,60
1069,97	19652,40
1070,40	21969,00
1070,82	22189,60
1071,25	21937,20
1071,67	20603,20
1072,09	21669,20
1072,52	20528,00
1072,94	19910,40
1073,36	19581,00
1073,79	21746,00
1074,21	20496,60
1074,63	19777,20
1075,06	20409,00
1075,48	20456,40
1075,90	21085,60
1076,33	20224,20
1076,75	20162,80
1077,17	20620,60
1077,59	21956,80
1078,02	20573,00
1078,44	21813,00
1078,86	22668,60
1079,29	19103,60
1079,71	21152,80
1080,13	20473,40
1080,56	20721,60
1080,98	21498,40
1081,40	20954,20
1081,82	20548,00
1082,25	21341,80
1082,67	20775,20
1083,09	20675,60
1083,51	20835,60
1083,94	20951,00
1084,36	22051,60
1084,78	20889,20
1085,21	20551,40
1085,63	22421,60
1086,05	20075,20
1086,47	20494,00
1086,89	21247,20
1087,32	19482,60
1087,74	21627,00
1088,16	39240,40
1088,58	21527,60
1089,01	20176,00
1089,43	20319,80
1089,85	20494,00
1090,27	22225,00
1090,69	20864,60
1091,12	20032,20
1091,54	20490,20
1091,96	20578,00
1092,38	20185,80
1092,80	20935,00
1093,23	20393,80
1093,65	20806,60
1094,07	20585,20
1094,49	20821,80
1094,91	20623,60
1095,34	20864,40
1095,76	20217,00
1096,18	20843,80
1096,60	21244,00
1097,02	19765,80
1097,44	20766,20
1097,87	20187,60
1098,29	21461,20
1098,71	21439,80
1099,13	21161,60
1099,55	20629,60
1099,97	20410,60
1100,39	20076,20
1100,82	20394,60
1101,24	20330,60
1101,66	20875,20
1102,08	19751,40
1102,50	20111,20
1102,92	20542,20
1103,34	20631,20
1103,76	21152,20
1104,19	30711,80
1104,61	22425,40
1105,03	18797,60
1105,45	20846,20
1105,87	20496,60
1106,29	19949,40
1106,71	20521,80
1107,13	18813,20
1107,55	19381,80
1107,97	21659,20
1108,39	19184,60
1108,82	21117,40
1109,24	20955,40
1109,66	21001,40
1110,08	18920,40
1110,50	20073,80
1110,92	19070,40
1111,34	19887,40
1111,76	19239,60
1112,18	19359,20
1112,60	18812,80
1113,02	19962,60
1113,44	19419,00
1113,86	19313,20
1114,28	20288,40
1114,70	20765,00
1115,12	19611,40
1115,54	20166,60
1115,96	19737,60
1116,38	20595,60
1116,80	20307,60
1117,22	19532,80
1117,64	18791,40
1118,06	1832,60
1118,48	2241,00
1118,90	2198,40
1119,32	2201,20
>>>>>End Processed Spectral Data<<<<<
