SpectraSuite Data File
++++++++++++++++++++++++++++++++++++
Date: Wed Oct 15 10:09:39 EEST 2014
User: OO Maya
Dark Spectrum Present: No
Reference Spectrum Present: No
Number of Sampled Component Spectra: 1
Spectrometers: MAYP11278
Integration Time (usec): 500000 (MAYP11278)
Spectra Averaged: 5 (MAYP11278)
Boxcar Smoothing: 0 (MAYP11278)
Correct for Electrical Dark: No (MAYP11278)
Strobe/Lamp Enabled: No (MAYP11278)
Correct for Detector Non-linearity: No (MAYP11278)
Correct for Stray Light: No (MAYP11278)
Number of Pixels in Processed Spectrum: 2068
>>>>>Begin Processed Spectral Data<<<<<
188,14	2312,40
188,62	2229,80
189,09	2194,60
189,57	2197,20
190,05	3001,80
190,53	3072,80
191,01	3116,80
191,49	3138,00
191,97	3193,40
192,44	3155,20
192,92	3117,80
193,40	3096,40
193,88	3149,20
194,36	3130,60
194,84	3163,80
195,31	3122,00
195,79	3172,40
196,27	3141,20
196,75	3146,20
197,23	3288,80
197,70	3138,40
198,18	3113,60
198,66	3147,60
199,14	3117,60
199,62	3177,20
200,09	3185,60
200,57	3138,80
201,05	3142,20
201,53	3201,40
202,01	3175,00
202,48	3174,20
202,96	3103,20
203,44	3169,80
203,92	3112,00
204,40	3187,60
204,87	3222,00
205,35	3131,40
205,83	3112,60
206,31	3222,60
206,78	3145,80
207,26	3162,60
207,74	3278,20
208,22	3154,00
208,69	3209,60
209,17	3145,80
209,65	3211,00
210,13	3171,40
210,60	3157,60
211,08	3159,80
211,56	3184,40
212,04	3174,00
212,51	3123,80
212,99	3261,00
213,47	3189,00
213,95	3137,60
214,42	3241,80
214,90	3175,00
215,38	3230,00
215,85	3190,60
216,33	3214,80
216,81	3189,80
217,29	3190,60
217,76	3136,20
218,24	3168,60
218,72	3230,20
219,19	3093,20
219,67	3126,40
220,15	3138,40
220,62	3166,00
221,10	3295,60
221,58	3141,00
222,05	3203,40
222,53	3141,20
223,01	3206,60
223,49	3163,80
223,96	3206,00
224,44	3172,00
224,92	3149,00
225,39	3121,40
225,87	3179,80
226,35	3146,00
226,82	3162,40
227,30	3216,00
227,77	3160,40
228,25	3197,00
228,73	3217,40
229,20	3207,00
229,68	3170,80
230,16	3180,60
230,63	3158,00
231,11	3206,40
231,59	3236,80
232,06	3183,60
232,54	3185,80
233,02	3128,60
233,49	3191,40
233,97	3201,60
234,44	3356,20
234,92	3199,00
235,40	3136,00
235,87	3157,00
236,35	3127,40
236,82	3226,00
237,30	3288,00
237,78	3151,60
238,25	3185,20
238,73	3181,60
239,20	3179,20
239,68	3160,40
240,16	3107,40
240,63	3215,40
241,11	3252,20
241,58	3185,00
242,06	3160,40
242,53	3220,80
243,01	3233,40
243,49	3127,00
243,96	3134,60
244,44	3228,60
244,91	3266,60
245,39	3173,00
245,86	3251,60
246,34	5391,00
246,82	3101,80
247,29	3192,20
247,77	3184,20
248,24	3197,60
248,72	3193,00
249,19	3124,40
249,67	3174,60
250,14	3222,00
250,62	3201,80
251,09	3245,40
251,57	3190,80
252,04	3289,80
252,52	3254,60
253,00	3159,80
253,47	3248,80
253,95	3193,60
254,42	3174,20
254,90	3222,60
255,37	3212,40
255,85	3241,80
256,32	3174,20
256,80	3213,60
257,27	3220,00
257,75	3227,60
258,22	3350,60
258,70	3204,40
259,17	3185,40
259,65	3209,00
260,12	3232,00
260,59	3277,40
261,07	3188,40
261,54	3174,20
262,02	3251,00
262,49	3161,60
262,97	3223,60
263,44	3190,00
263,92	3141,60
264,39	3240,60
264,87	3249,40
265,34	3185,00
265,82	3196,80
266,29	3214,80
266,76	3228,00
267,24	3166,80
267,71	3201,00
268,19	3199,20
268,66	3224,20
269,14	3133,80
269,61	3154,80
270,09	3182,80
270,56	3243,00
271,03	3248,20
271,51	3198,20
271,98	3225,80
272,46	3135,60
272,93	3149,20
273,40	3105,40
273,88	3212,80
274,35	3390,60
274,83	3210,80
275,30	3246,20
275,78	3176,20
276,25	3195,60
276,72	3235,40
277,20	3247,60
277,67	3148,60
278,14	3190,20
278,62	3142,40
279,09	3421,80
279,57	3169,40
280,04	3171,80
280,51	3421,40
280,99	3266,60
281,46	3367,80
281,93	3171,20
282,41	3282,60
282,88	3193,60
283,36	3204,40
283,83	3206,00
284,30	3174,00
284,78	3152,00
285,25	3242,20
285,72	3212,00
286,20	3223,40
286,67	3230,40
287,14	3134,20
287,62	3209,20
288,09	3290,20
288,56	3207,20
289,04	3247,40
289,51	3143,60
289,98	3275,00
290,46	3173,20
290,93	3224,80
291,40	3180,20
291,88	3238,40
292,35	3328,60
292,82	3164,80
293,29	3270,60
293,77	3180,60
294,24	3229,40
294,71	3240,20
295,19	3184,40
295,66	3246,40
296,13	3239,00
296,61	3310,60
297,08	3325,60
297,55	3253,60
298,02	3250,60
298,50	3243,80
298,97	3180,80
299,44	3326,00
299,91	3198,00
300,39	3237,00
300,86	3185,80
301,33	3277,80
301,81	3270,80
302,28	3264,40
302,75	3188,20
303,22	3266,80
303,70	3255,00
304,17	3202,40
304,64	3192,60
305,11	3193,20
305,58	3238,60
306,06	3244,60
306,53	3231,60
307,00	3256,20
307,47	3178,80
307,95	3197,60
308,42	3228,00
308,89	3201,60
309,36	3284,60
309,83	3287,00
310,31	3253,60
310,78	3237,00
311,25	3258,60
311,72	3206,20
312,20	3290,40
312,67	3234,60
313,14	3342,80
313,61	3196,80
314,08	3203,40
314,56	3225,20
315,03	3206,20
315,50	3187,80
315,97	3265,20
316,44	3243,40
316,91	3238,60
317,39	3270,00
317,86	3248,80
318,33	3406,20
318,80	3236,40
319,27	3223,00
319,74	3179,20
320,22	3280,00
320,69	3314,00
321,16	3285,20
321,63	3244,20
322,10	3172,20
322,57	3196,20
323,04	3330,60
323,52	3225,00
323,99	3379,80
324,46	3172,80
324,93	3259,60
325,40	3238,20
325,87	3251,40
326,34	3249,20
326,82	3236,40
327,29	3294,00
327,76	3302,40
328,23	3295,40
328,70	3291,60
329,17	3255,40
329,64	3246,00
330,11	3249,60
330,58	3243,00
331,05	3295,40
331,53	3290,40
332,00	3358,20
332,47	3239,20
332,94	3392,60
333,41	3312,80
333,88	3326,80
334,35	3375,40
334,82	3315,00
335,29	3315,20
335,76	3473,80
336,23	3239,00
336,70	3298,00
337,18	3272,20
337,65	3304,00
338,12	3272,40
338,59	3243,60
339,06	3369,40
339,53	3298,80
340,00	3219,00
340,47	3226,80
340,94	3221,40
341,41	3286,60
341,88	3324,20
342,35	3223,00
342,82	3272,40
343,29	3299,80
343,76	3265,00
344,23	3237,40
344,70	3243,60
345,17	3206,40
345,64	3246,00
346,11	3271,00
346,58	3221,00
347,05	3206,80
347,52	3318,00
347,99	3206,60
348,46	3306,20
348,93	3254,80
349,40	3172,60
349,87	3231,00
350,34	3277,60
350,81	3240,20
351,28	3197,60
351,75	3241,80
352,22	3325,80
352,69	3239,00
353,16	3221,80
353,63	3224,00
354,10	3230,60
354,57	3234,00
355,04	3254,20
355,51	3237,00
355,98	3319,80
356,45	3194,80
356,92	3335,40
357,39	3184,20
357,86	3336,60
358,33	3286,80
358,80	3162,40
359,27	3199,80
359,74	3185,20
360,21	3210,20
360,68	3284,00
361,14	3311,20
361,61	3226,80
362,08	3223,80
362,55	3252,20
363,02	3210,40
363,49	3217,80
363,96	3338,60
364,43	3273,80
364,90	3209,40
365,37	3255,20
365,84	3211,40
366,31	3189,20
366,77	3253,20
367,24	3238,80
367,71	4312,80
368,18	3142,40
368,65	3199,00
369,12	3279,20
369,59	3190,20
370,06	3272,80
370,53	3263,40
370,99	3205,00
371,46	3842,20
371,93	3230,20
372,40	3197,80
372,87	3163,40
373,34	3221,60
373,81	3255,60
374,27	3173,40
374,74	3191,80
375,21	3265,00
375,68	3177,80
376,15	3315,80
376,62	3223,60
377,09	3183,80
377,55	3186,80
378,02	3248,60
378,49	3237,40
378,96	3218,40
379,43	3222,80
379,90	3220,60
380,36	3260,00
380,83	3303,60
381,30	3239,40
381,77	3313,80
382,24	3297,80
382,71	3170,80
383,17	3238,80
383,64	3227,20
384,11	3280,00
384,58	3227,80
385,05	3511,60
385,51	3238,60
385,98	3219,80
386,45	3217,00
386,92	3342,40
387,39	3175,40
387,85	3169,40
388,32	3275,80
388,79	3246,60
389,26	3291,00
389,72	3198,40
390,19	3267,60
390,66	3215,20
391,13	3246,80
391,59	3252,60
392,06	3240,60
392,53	3246,80
393,00	3206,40
393,46	3208,00
393,93	3352,00
394,40	3221,20
394,87	3293,00
395,33	3191,20
395,80	3265,40
396,27	3486,60
396,74	3173,60
397,20	3284,00
397,67	3291,80
398,14	3201,80
398,61	3253,60
399,07	3233,00
399,54	3230,40
400,01	3329,00
400,47	3222,20
400,94	3287,00
401,41	3279,20
401,88	3352,80
402,34	3345,80
402,81	3363,20
403,28	3336,60
403,74	3484,20
404,21	3427,60
404,68	3540,00
405,14	3596,80
405,61	3538,60
406,08	3426,60
406,54	3532,20
407,01	3547,20
407,48	3674,80
407,95	3579,00
408,41	3606,40
408,88	3617,00
409,35	3566,80
409,81	3694,00
410,28	3606,80
410,74	3736,00
411,21	3643,00
411,68	3786,20
412,14	3684,20
412,61	3663,80
413,08	3799,60
413,54	3748,80
414,01	3808,60
414,48	3836,00
414,94	3906,20
415,41	3831,00
415,88	3949,80
416,34	3872,60
416,81	3906,80
417,27	3994,40
417,74	3929,20
418,21	3903,60
418,67	3950,80
419,14	3954,60
419,60	3996,60
420,07	3930,80
420,54	4025,60
421,00	3944,60
421,47	4040,20
421,93	3975,00
422,40	4067,80
422,87	4012,40
423,33	4073,40
423,80	4085,20
424,26	4160,20
424,73	4114,40
425,19	4167,00
425,66	4136,40
426,13	4219,00
426,59	4129,00
427,06	4256,40
427,52	4218,80
427,99	4248,60
428,45	4194,40
428,92	4293,20
429,38	4272,20
429,85	4259,00
430,32	4302,60
430,78	4473,00
431,25	4253,40
431,71	4335,00
432,18	4420,80
432,64	4441,60
433,11	4382,00
433,57	4407,60
434,04	4446,40
434,50	4485,20
434,97	4641,20
435,43	4606,80
435,90	4847,80
436,36	4723,20
436,83	4504,80
437,29	4583,80
437,76	4580,80
438,22	4573,40
438,69	4551,20
439,15	4577,60
439,62	4811,80
440,08	4631,00
440,55	4674,80
441,01	4733,80
441,48	4617,20
441,94	4640,60
442,41	4830,60
442,87	4649,60
443,34	4777,40
443,80	4739,40
444,27	4715,60
444,73	4861,00
445,20	4829,80
445,66	4809,20
446,12	4834,00
446,59	4852,60
447,05	4827,00
447,52	4875,20
447,98	4864,40
448,45	4854,40
448,91	4956,00
449,38	4964,00
449,84	4932,40
450,30	4915,40
450,77	4948,80
451,23	4970,60
451,70	5026,60
452,16	5084,60
452,63	5026,40
453,09	5150,20
453,55	5113,80
454,02	5114,40
454,48	5144,00
454,95	5193,80
455,41	5169,20
455,87	5208,60
456,34	5292,20
456,80	5203,00
457,27	5333,80
457,73	5279,80
458,19	5314,20
458,66	5266,00
459,12	5378,00
459,58	5375,00
460,05	5429,60
460,51	5394,20
460,98	5382,00
461,44	5553,00
461,90	5526,80
462,37	5470,40
462,83	5450,80
463,29	5618,40
463,76	5565,80
464,22	5590,80
464,68	5593,40
465,15	5581,00
465,61	5636,60
466,07	5714,20
466,54	5672,20
467,00	5736,60
467,46	5791,00
467,93	5751,80
468,39	5812,60
468,85	5829,80
469,32	5829,20
469,78	5824,40
470,24	5885,80
470,71	5911,80
471,17	5925,20
471,63	5943,60
472,10	5920,80
472,56	5963,00
473,02	6039,00
473,48	6114,60
473,95	6085,80
474,41	6091,80
474,87	6123,80
475,34	6135,00
475,80	6224,80
476,26	6206,00
476,72	6265,60
477,19	6247,80
477,65	6300,80
478,11	6393,40
478,58	6366,60
479,04	6426,80
479,50	6348,20
479,96	6512,60
480,43	6496,00
480,89	6514,60
481,35	6482,00
481,81	6525,00
482,28	6577,40
482,74	6545,40
483,20	6633,40
483,66	6595,20
484,13	6670,20
484,59	6831,40
485,05	6778,00
485,51	6820,20
485,97	6748,60
486,44	6852,00
486,90	6802,60
487,36	6922,60
487,82	6857,00
488,29	6941,20
488,75	6977,20
489,21	7042,60
489,67	7106,00
490,13	7157,80
490,60	7062,80
491,06	7207,00
491,52	7144,00
491,98	7205,60
492,44	7154,80
492,90	7340,00
493,37	7329,60
493,83	7325,00
494,29	7350,80
494,75	7372,40
495,21	7373,40
495,67	7435,40
496,14	7480,20
496,60	7535,80
497,06	7571,60
497,52	7654,60
497,98	7666,60
498,44	7636,40
498,91	7666,80
499,37	7688,80
499,83	7892,20
500,29	7746,60
500,75	7796,00
501,21	7845,00
501,67	7858,60
502,14	7929,40
502,60	7937,20
503,06	7978,00
503,52	8020,00
503,98	8109,40
504,44	8045,80
504,90	8169,40
505,36	8147,20
505,82	8140,60
506,29	8217,40
506,75	8327,00
507,21	8307,40
507,67	8347,20
508,13	8404,40
508,59	8348,00
509,05	8387,60
509,51	8398,00
509,97	8501,40
510,43	8531,40
510,89	8571,20
511,35	8680,40
511,82	8732,20
512,28	8651,80
512,74	8641,80
513,20	8745,80
513,66	8829,40
514,12	8750,00
514,58	8936,80
515,04	9035,80
515,50	8865,80
515,96	9007,20
516,42	9106,00
516,88	9115,80
517,34	9283,20
517,80	9183,60
518,26	9209,20
518,72	9458,40
519,18	9303,00
519,64	9325,40
520,10	9300,00
520,56	9429,60
521,02	9491,80
521,48	9578,20
521,94	9648,80
522,40	9634,20
522,86	9631,00
523,32	9840,60
523,78	9853,80
524,24	9811,00
524,70	9975,40
525,16	9968,20
525,62	9992,80
526,08	10090,80
526,54	10085,40
527,00	10152,40
527,46	10103,60
527,92	10175,60
528,38	10311,40
528,84	10304,80
529,30	10323,40
529,76	10326,80
530,22	10423,00
530,68	10484,40
531,14	10405,20
531,60	10613,80
532,06	10575,80
532,52	10640,60
532,98	10657,20
533,44	10758,80
533,90	10781,60
534,36	10754,80
534,82	10838,20
535,28	10872,40
535,73	10965,80
536,19	10994,60
536,65	11037,80
537,11	11044,00
537,57	11179,40
538,03	11225,60
538,49	11262,00
538,95	11415,60
539,41	11369,00
539,87	11706,00
540,33	11430,60
540,79	11666,40
541,24	11690,60
541,70	11820,40
542,16	11900,20
542,62	12016,60
543,08	11955,00
543,54	12167,60
544,00	12021,40
544,46	12209,20
544,91	12231,40
545,37	12363,40
545,83	12738,60
546,29	12799,20
546,75	12404,80
547,21	12334,60
547,67	12315,00
548,13	12337,60
548,58	12350,60
549,04	12408,20
549,50	12440,80
549,96	12674,60
550,42	12528,40
550,88	12527,00
551,33	12666,00
551,79	12694,80
552,25	12838,40
552,71	12786,60
553,17	12778,20
553,63	12899,40
554,08	12874,00
554,54	12869,20
555,00	13033,40
555,46	13010,40
555,92	13177,00
556,37	13155,20
556,83	13242,00
557,29	13119,60
557,75	13292,40
558,21	13490,20
558,66	13371,80
559,12	13428,20
559,58	13485,60
560,04	13538,80
560,50	13618,60
560,95	13652,40
561,41	13739,60
561,87	13723,60
562,33	13791,80
562,78	13865,80
563,24	13879,40
563,70	14021,80
564,16	13996,40
564,61	14081,20
565,07	14117,00
565,53	14179,80
565,99	14253,20
566,44	14343,60
566,90	14361,00
567,36	14345,60
567,82	14444,60
568,27	14602,60
568,73	14520,00
569,19	14639,20
569,65	14692,40
570,10	14732,40
570,56	14779,00
571,02	14845,80
571,47	14916,80
571,93	14918,60
572,39	15018,20
572,85	15060,80
573,30	15052,60
573,76	15141,40
574,22	15227,40
574,67	15275,40
575,13	15369,20
575,59	15296,80
576,04	15454,20
576,50	15401,80
576,96	15661,20
577,42	15627,20
577,87	15637,60
578,33	15690,80
578,79	15923,40
579,24	15890,20
579,70	15859,00
580,16	15973,20
580,61	16058,40
581,07	16039,00
581,53	16134,60
581,98	16158,00
582,44	16257,80
582,89	16270,60
583,35	16358,40
583,81	16466,00
584,26	16502,40
584,72	16587,60
585,18	16571,40
585,63	16783,60
586,09	16688,40
586,55	16751,20
587,00	16860,60
587,46	16893,00
587,91	17006,40
588,37	16942,40
588,83	17072,20
589,28	17073,80
589,74	17094,40
590,19	17271,20
590,65	17307,80
591,11	17337,60
591,56	17323,80
592,02	17523,40
592,47	17485,40
592,93	17627,80
593,39	17625,20
593,84	17745,80
594,30	17720,60
594,75	17767,80
595,21	17895,40
595,66	17906,00
596,12	17934,20
596,58	18034,60
597,03	18120,80
597,49	18139,00
597,94	18187,80
598,40	18154,60
598,85	18303,40
599,31	18479,60
599,76	18460,80
600,22	18572,40
600,67	18672,80
601,13	18682,60
601,59	18769,00
602,04	18651,60
602,50	19037,20
602,95	18857,40
603,41	18965,60
603,86	18905,20
604,32	18982,40
604,77	19181,80
605,23	19176,00
605,68	19187,20
606,14	19226,20
606,59	19262,80
607,05	19349,80
607,50	19429,00
607,96	19499,80
608,41	19630,80
608,87	19655,20
609,32	19936,20
609,78	19919,20
610,23	20075,80
610,69	20344,80
611,14	20690,40
611,60	20610,40
612,05	20700,20
612,50	20449,60
612,96	20491,20
613,41	20728,60
613,87	20508,60
614,32	20633,00
614,78	20681,80
615,23	20719,00
615,69	20773,80
616,14	20862,00
616,59	20875,80
617,05	20932,00
617,50	21045,20
617,96	21154,40
618,41	21161,80
618,87	21234,80
619,32	21350,40
619,77	21447,00
620,23	21416,00
620,68	21675,40
621,14	21679,80
621,59	21680,60
622,05	21810,40
622,50	21908,00
622,95	21920,40
623,41	21988,40
623,86	21959,00
624,32	22113,80
624,77	22091,40
625,22	22238,00
625,68	22269,80
626,13	22338,60
626,58	22433,60
627,04	22540,60
627,49	22552,20
627,95	22689,60
628,40	22749,60
628,85	22725,40
629,31	22791,40
629,76	23018,20
630,21	22989,00
630,67	23107,20
631,12	23102,40
631,57	23192,80
632,03	23267,20
632,48	23355,40
632,93	23261,80
633,39	23396,40
633,84	23331,80
634,29	23472,60
634,75	23444,80
635,20	23641,80
635,65	23703,80
636,11	23610,80
636,56	23757,20
637,01	23806,20
637,47	23839,60
637,92	24015,00
638,37	24076,20
638,83	24040,00
639,28	24151,20
639,73	24126,40
640,18	24082,40
640,64	24381,20
641,09	24513,00
641,54	24475,40
642,00	24498,00
642,45	24587,00
642,90	24546,00
643,35	24703,60
643,81	24883,80
644,26	24867,80
644,71	24930,60
645,17	25001,40
645,62	24993,40
646,07	25040,60
646,52	25272,00
646,98	25249,40
647,43	25415,40
647,88	25459,40
648,33	25443,00
648,79	25483,80
649,24	25664,40
649,69	25657,60
650,14	26027,20
650,59	25807,80
651,05	25759,00
651,50	25906,80
651,95	25976,40
652,40	25955,80
652,86	26086,40
653,31	26145,00
653,76	26238,60
654,21	26400,20
654,66	26328,40
655,12	26397,60
655,57	26372,20
656,02	26554,20
656,47	26559,20
656,92	26722,80
657,38	26748,20
657,83	26880,60
658,28	26897,80
658,73	26896,00
659,18	26909,20
659,63	27211,00
660,09	27066,20
660,54	27260,00
660,99	27300,60
661,44	27255,20
661,89	27331,40
662,34	27342,00
662,80	27386,40
663,25	27491,00
663,70	27555,60
664,15	27636,60
664,60	27710,20
665,05	27718,20
665,50	27872,00
665,96	27766,60
666,41	27867,20
666,86	27948,00
667,31	28137,80
667,76	28120,20
668,21	28188,40
668,66	28225,60
669,11	28262,40
669,56	28382,80
670,02	28254,00
670,47	28407,40
670,92	28582,40
671,37	28591,60
671,82	28751,60
672,27	28839,60
672,72	28733,60
673,17	28793,00
673,62	28928,40
674,07	29091,60
674,52	28902,20
674,98	29062,20
675,43	29046,40
675,88	29101,00
676,33	29263,20
676,78	29359,60
677,23	29308,40
677,68	29418,40
678,13	29441,40
678,58	29357,80
679,03	29515,00
679,48	29621,20
679,93	29645,40
680,38	29760,60
680,83	29768,60
681,28	29670,00
681,73	29723,40
682,18	29848,00
682,63	29911,40
683,08	30080,60
683,53	30170,40
683,98	30209,20
684,43	30289,40
684,89	30155,00
685,34	30206,80
685,79	30265,20
686,24	30270,80
686,69	30273,00
687,14	30467,60
687,59	30548,00
688,04	30639,00
688,49	30621,40
688,93	30723,00
689,38	30694,00
689,83	30615,20
690,28	30727,80
690,73	30703,40
691,18	30683,20
691,63	30719,00
692,08	30731,40
692,53	30813,20
692,98	30931,20
693,43	31118,80
693,88	31232,60
694,33	31205,40
694,78	31346,00
695,23	31723,00
695,68	31471,60
696,13	31551,40
696,58	31593,40
697,03	31442,40
697,48	31457,60
697,93	31518,80
698,38	31538,80
698,82	31652,80
699,27	31816,20
699,72	31820,00
700,17	31921,80
700,62	32037,60
701,07	32011,60
701,52	32128,00
701,97	31808,20
702,42	31999,40
702,87	32006,20
703,32	32063,20
703,76	32289,00
704,21	32302,00
704,66	32327,80
705,11	32442,00
705,56	32269,80
706,01	32337,60
706,46	32177,20
706,91	32387,60
707,36	32494,40
707,80	32572,80
708,25	32841,00
708,70	32830,80
709,15	32795,60
709,60	32746,60
710,05	32694,60
710,50	32599,40
710,94	32699,80
711,39	32884,40
711,84	33039,00
712,29	33175,80
712,74	33044,40
713,19	33222,00
713,63	33108,00
714,08	33055,80
714,53	33080,20
714,98	33056,20
715,43	33176,80
715,87	33306,40
716,32	33310,40
716,77	33371,60
717,22	33303,60
717,67	33293,40
718,12	33309,80
718,56	33397,80
719,01	33238,20
719,46	33201,60
719,91	33342,40
720,35	33422,20
720,80	33535,00
721,25	33534,20
721,70	33487,60
722,15	33566,60
722,59	33426,40
723,04	33330,80
723,49	33251,60
723,94	33450,80
724,38	33503,80
724,83	33603,40
725,28	33593,00
725,73	33724,40
726,17	33780,80
726,62	33853,20
727,07	33934,40
727,52	33795,20
727,96	33867,80
728,41	33823,60
728,86	33924,80
729,31	34136,60
729,75	34152,60
730,20	34395,00
730,65	34359,00
731,09	34568,40
731,54	34601,00
731,99	34665,40
732,44	34590,20
732,88	34620,00
733,33	34802,00
733,78	34924,80
734,22	34962,20
734,67	35285,80
735,12	35328,60
735,57	35458,20
736,01	35640,00
736,46	35534,20
736,91	35604,00
737,35	35716,40
737,80	35587,80
738,25	35559,60
738,69	35695,60
739,14	35828,00
739,59	35882,20
740,03	36177,20
740,48	36186,60
740,93	36059,00
741,37	36103,40
741,82	36171,60
742,26	35951,00
742,71	35937,80
743,16	35956,60
743,60	36056,80
744,05	36087,60
744,50	36216,80
744,94	36425,60
745,39	36461,40
745,84	36448,80
746,28	36399,60
746,73	36260,00
747,17	36127,40
747,62	36146,80
748,07	36216,00
748,51	36212,80
748,96	36276,00
749,40	36372,00
749,85	36597,00
750,30	36470,20
750,74	36562,20
751,19	36540,40
751,63	36526,40
752,08	36439,20
752,53	36346,20
752,97	36432,80
753,42	36350,40
753,86	36364,40
754,31	36466,20
754,75	36620,40
755,20	36690,80
755,64	36658,80
756,09	36673,40
756,54	36534,40
756,98	36292,60
757,43	36393,20
757,87	36238,40
758,32	36402,60
758,76	36465,60
759,21	36593,00
759,65	36605,80
760,10	36568,00
760,54	36606,80
760,99	36371,20
761,43	36286,00
761,88	36302,20
762,33	36204,80
762,77	36247,80
763,22	36523,40
763,66	36761,60
764,11	36960,60
764,55	37088,80
765,00	37039,40
765,44	37093,60
765,89	36874,60
766,33	36726,20
766,77	36628,00
767,22	36612,60
767,66	36694,00
768,11	36867,00
768,55	37196,80
769,00	37414,20
769,44	37739,80
769,89	37781,60
770,33	37804,20
770,78	37737,60
771,22	37641,40
771,67	37627,20
772,11	37539,00
772,56	37480,20
773,00	37229,80
773,44	37376,60
773,89	37347,40
774,33	37389,80
774,78	37664,80
775,22	37820,20
775,67	37962,60
776,11	38073,40
776,55	38114,20
777,00	38077,00
777,44	37823,80
777,89	37709,20
778,33	37588,40
778,77	37463,60
779,22	37632,20
779,66	37704,20
780,11	37762,20
780,55	37936,60
780,99	38176,40
781,44	38100,00
781,88	38164,80
782,33	38094,40
782,77	37870,80
783,21	37766,40
783,66	37588,80
784,10	37366,60
784,55	37245,20
784,99	37285,20
785,43	37347,80
785,88	37587,20
786,32	37737,00
786,76	37936,60
787,21	38090,40
787,65	37904,40
788,09	37748,20
788,54	37576,20
788,98	37439,20
789,42	37306,60
789,87	37122,40
790,31	37120,40
790,75	36938,00
791,20	37134,00
791,64	37549,40
792,08	37707,40
792,53	37933,40
792,97	37976,20
793,41	38099,40
793,86	37665,60
794,30	37340,20
794,74	37021,80
795,18	36762,00
795,63	36639,20
796,07	36737,80
796,51	36885,00
796,96	37219,40
797,40	37419,00
797,84	37435,40
798,28	37596,60
798,73	37660,40
799,17	37476,40
799,61	37074,00
800,06	36957,20
800,50	36691,20
800,94	36498,00
801,38	36373,80
801,83	36584,20
802,27	36703,40
802,71	37148,60
803,15	37489,40
803,60	37542,40
804,04	37671,40
804,48	37598,80
804,92	37340,60
805,37	37146,20
805,81	36724,60
806,25	36281,20
806,69	36052,20
807,13	36142,80
807,58	36090,40
808,02	36357,20
808,46	36622,60
808,90	36847,40
809,34	37105,60
809,79	37344,80
810,23	37448,60
810,67	37434,20
811,11	37367,00
811,55	37124,20
812,00	36568,00
812,44	36206,20
812,88	36132,80
813,32	35982,00
813,76	35891,40
814,21	35830,20
814,65	36191,80
815,09	36515,20
815,53	36960,40
815,97	37168,60
816,41	37198,60
816,85	37276,20
817,30	37247,00
817,74	37001,20
818,18	36848,40
818,62	36210,00
819,06	36011,00
819,50	35999,80
819,94	35747,60
820,39	35818,00
820,83	35930,60
821,27	36244,00
821,71	36516,00
822,15	37055,20
822,59	37032,60
823,03	37277,00
823,47	37216,00
823,92	37033,80
824,36	36834,80
824,80	36579,60
825,24	36333,40
825,68	36016,40
826,12	35844,80
826,56	35894,40
827,00	35999,80
827,44	36327,00
827,88	36635,60
828,32	37031,00
828,77	37101,40
829,21	37284,60
829,65	37304,00
830,09	37083,60
830,53	37142,40
830,97	36679,60
831,41	36442,40
831,85	36017,60
832,29	35889,00
832,73	35857,80
833,17	36165,40
833,61	36644,60
834,05	36986,00
834,49	37361,00
834,93	37662,80
835,37	37639,60
835,81	37534,00
836,25	37209,60
836,69	36719,20
837,13	36407,00
837,57	36067,60
838,01	35845,20
838,45	35880,20
838,89	36084,20
839,33	36262,00
839,77	36622,00
840,21	37204,40
840,65	37588,40
841,09	38073,00
841,53	38023,40
841,97	38017,20
842,41	37793,60
842,85	37493,00
843,29	36961,40
843,73	36404,20
844,17	36036,40
844,61	35749,40
845,05	35787,60
845,49	36039,40
845,93	36427,20
846,37	36803,40
846,81	37228,80
847,25	37793,20
847,69	38241,20
848,13	38476,00
848,57	38511,20
849,01	38419,00
849,45	38346,20
849,89	38130,00
850,32	37704,80
850,76	37202,00
851,20	36960,80
851,64	36574,60
852,08	36401,80
852,52	36375,00
852,96	36397,60
853,40	36661,00
853,84	37130,20
854,28	37733,20
854,72	38466,20
855,16	38784,00
855,59	38919,60
856,03	38871,00
856,47	38612,60
856,91	38082,40
857,35	37433,00
857,79	36752,20
858,23	36234,60
858,67	36117,00
859,10	35918,40
859,54	36311,80
859,98	36802,00
860,42	37360,80
860,86	37817,20
861,30	38482,00
861,74	38800,00
862,17	38853,20
862,61	38788,00
863,05	38561,60
863,49	38067,80
863,93	37566,00
864,37	37055,60
864,80	36735,80
865,24	36527,40
865,68	36408,20
866,12	36668,40
866,56	36791,00
867,00	37160,40
867,43	37492,60
867,87	38259,20
868,31	38628,60
868,75	38890,00
869,19	38982,00
869,62	38861,20
870,06	38430,60
870,50	37802,20
870,94	36831,00
871,38	36305,40
871,81	36060,00
872,25	35973,40
872,69	36331,80
873,13	36577,80
873,56	37274,60
874,00	38036,80
874,44	38793,00
874,88	39256,00
875,31	39553,40
875,75	39924,20
876,19	39798,00
876,63	39822,20
877,06	39381,80
877,50	38799,80
877,94	38282,20
878,38	37807,00
878,81	37347,00
879,25	36982,60
879,69	37025,40
880,13	36970,00
880,56	37142,60
881,00	37843,20
881,44	38644,20
881,87	39566,20
882,31	40251,00
882,75	40949,60
883,19	41213,20
883,62	41247,40
884,06	40940,20
884,50	40430,60
884,93	39769,40
885,37	39121,00
885,81	38514,20
886,24	37908,00
886,68	37504,20
887,12	37428,60
887,55	37288,60
887,99	37618,40
888,43	38155,40
888,86	38632,60
889,30	39540,00
889,74	39840,40
890,17	40537,40
890,61	40993,40
891,05	41569,60
891,48	41826,00
891,92	41906,20
892,36	41393,20
892,79	40618,60
893,23	39810,60
893,67	39139,60
894,10	38613,80
894,54	38182,80
894,97	38077,00
895,41	37925,20
895,85	38138,80
896,28	38782,00
896,72	39631,00
897,16	40285,00
897,59	40944,20
898,03	41774,60
898,46	42367,60
898,90	42686,40
899,34	42437,20
899,77	41965,20
900,21	41381,60
900,64	40741,00
901,08	39832,80
901,51	39055,00
901,95	38409,00
902,39	38002,40
902,82	37734,60
903,26	37752,20
903,69	38165,80
904,13	38543,80
904,56	38796,00
905,00	39193,80
905,43	39665,80
905,87	40162,00
906,31	40653,80
906,74	40889,60
907,18	41354,40
907,61	41596,00
908,05	41545,40
908,48	41166,00
908,92	40609,20
909,35	39985,00
909,79	39231,00
910,22	38434,40
910,66	38069,20
911,09	38006,40
911,53	38159,80
911,96	38490,80
912,40	39210,40
912,83	40090,60
913,27	40905,80
913,70	41893,40
914,14	42633,20
914,57	43214,00
915,01	43337,00
915,44	43008,00
915,88	42073,80
916,31	40992,20
916,75	39949,80
917,18	39312,20
917,62	39036,40
918,05	39118,00
918,49	39339,40
918,92	39486,00
919,35	39740,80
919,79	40601,00
920,22	40870,80
920,66	41355,60
921,09	42021,80
921,53	42664,80
921,96	43260,00
922,40	43538,40
922,83	43631,20
923,26	43503,40
923,70	43246,40
924,13	42753,40
924,57	42110,80
925,00	41476,80
925,44	40652,00
925,87	39930,80
926,30	39175,80
926,74	38678,20
927,17	38675,80
927,61	38843,00
928,04	39463,80
928,47	39849,00
928,91	40474,60
929,34	41282,60
929,77	41890,60
930,21	42293,80
930,64	42465,60
931,08	42217,00
931,51	41764,20
931,94	40913,40
932,38	40373,40
932,81	39509,40
933,24	38612,60
933,68	37532,00
934,11	36788,20
934,54	36335,20
934,98	36139,60
935,41	35987,20
935,84	35910,40
936,28	36158,20
936,71	36258,80
937,14	36763,00
937,58	36946,60
938,01	36957,40
938,44	36817,20
938,88	36514,40
939,31	35773,00
939,74	34886,80
940,18	33884,20
940,61	32903,80
941,04	32092,60
941,48	31183,40
941,91	30720,40
942,34	30166,40
942,77	30118,80
943,21	30176,60
943,64	30340,80
944,07	30553,20
944,51	31008,80
944,94	31482,60
945,37	31752,20
945,80	32055,40
946,24	32658,00
946,67	33159,20
947,10	33694,00
947,53	33842,60
947,97	33941,60
948,40	34041,00
948,83	33652,60
949,26	33088,00
949,70	32767,60
950,13	32394,60
950,56	32043,40
950,99	31641,00
951,43	31531,80
951,86	31638,20
952,29	32041,20
952,72	32905,40
953,15	33746,00
953,59	34673,60
954,02	35626,00
954,45	36334,80
954,88	36910,60
955,31	37090,40
955,75	37069,20
956,18	36843,20
956,61	36305,20
957,04	35753,00
957,47	35278,20
957,91	34543,40
958,34	33986,80
958,77	33920,00
959,20	33708,20
959,63	33551,20
960,06	33515,80
960,50	33855,40
960,93	34167,80
961,36	34742,00
961,79	35312,60
962,22	36028,20
962,65	36693,80
963,09	37122,60
963,52	37785,00
963,95	37999,60
964,38	38082,00
964,81	37753,80
965,24	37269,60
965,67	36700,00
966,10	35875,80
966,54	35069,20
966,97	34383,40
967,40	33783,80
967,83	33533,80
968,26	33428,80
968,69	33807,80
969,12	33547,40
969,55	33582,60
969,98	33635,40
970,42	33739,40
970,85	34009,60
971,28	34399,40
971,71	34734,80
972,14	35333,00
972,57	35825,60
973,00	36269,20
973,43	36462,00
973,86	36471,20
974,29	36127,40
974,72	35529,40
975,15	34947,00
975,58	34085,20
976,01	33547,40
976,45	32925,40
976,88	32503,60
977,31	32269,20
977,74	32176,80
978,17	32069,40
978,60	32326,20
979,03	32585,80
979,46	33140,00
979,89	33559,60
980,32	33946,60
980,75	34215,20
981,18	34690,60
981,61	35046,40
982,04	35097,00
982,47	35134,00
982,90	35132,40
983,33	35100,80
983,76	34838,00
984,19	34708,60
984,62	34312,20
985,05	33747,60
985,48	33207,20
985,91	32538,80
986,34	32071,80
986,77	31518,00
987,20	31004,60
987,63	30847,60
988,06	30653,60
988,49	30699,80
988,92	30898,00
989,35	31020,40
989,78	31325,00
990,20	31661,40
990,63	32114,00
991,06	32591,40
991,49	32895,60
991,92	33214,80
992,35	33218,80
992,78	33025,00
993,21	32776,80
993,64	32448,60
994,07	32015,00
994,50	31434,00
994,93	30921,60
995,36	30511,60
995,79	29931,00
996,21	29530,00
996,64	29308,80
997,07	29033,40
997,50	29020,40
997,93	28992,40
998,36	28913,80
998,79	29129,20
999,22	29207,40
999,65	29562,00
1000,07	29785,00
1000,50	30255,20
1000,93	30451,00
1001,36	30614,40
1001,79	30638,00
1002,22	30557,20
1002,65	30226,40
1003,08	29845,60
1003,50	29278,60
1003,93	28621,80
1004,36	28010,40
1004,79	27528,60
1005,22	27070,40
1005,65	26766,80
1006,07	26444,20
1006,50	26095,80
1006,93	26088,40
1007,36	26152,00
1007,79	26039,20
1008,22	26104,80
1008,64	26102,00
1009,07	26195,80
1009,50	26500,40
1009,93	26413,80
1010,36	26477,20
1010,78	26529,40
1011,21	26554,00
1011,64	26653,80
1012,07	26526,80
1012,50	26535,80
1012,92	26392,40
1013,35	26017,40
1013,78	25709,20
1014,21	25072,00
1014,64	24709,00
1015,06	24153,20
1015,49	23972,40
1015,92	23624,60
1016,35	23597,80
1016,77	23588,00
1017,20	23768,60
1017,63	23844,60
1018,06	25088,80
1018,48	24387,80
1018,91	24519,80
1019,34	24945,40
1019,77	25023,00
1020,19	25290,80
1020,62	25329,60
1021,05	25492,80
1021,47	25658,20
1021,90	25775,60
1022,33	25944,00
1022,76	25945,40
1023,18	26152,80
1023,61	25946,80
1024,04	25584,40
1024,46	25264,40
1024,89	24957,00
1025,32	24658,00
1025,75	24425,00
1026,17	24142,40
1026,60	24074,40
1027,03	24149,00
1027,45	23881,00
1027,88	23813,60
1028,31	23745,80
1028,73	23985,80
1029,16	24075,00
1029,59	24438,20
1030,01	24410,00
1030,44	24554,40
1030,87	24579,40
1031,29	24577,20
1031,72	24329,00
1032,15	24281,40
1032,57	24094,00
1033,00	23748,60
1033,42	23518,60
1033,85	23143,80
1034,28	22728,80
1034,70	22419,80
1035,13	22048,00
1035,56	21677,20
1035,98	21483,40
1036,41	20981,40
1036,83	20910,40
1037,26	20622,60
1037,69	20449,80
1038,11	20434,00
1038,54	20321,60
1038,96	20315,80
1039,39	20352,00
1039,82	20438,20
1040,24	20430,20
1040,67	20398,40
1041,09	20452,60
1041,52	20331,80
1041,95	20426,00
1042,37	20227,00
1042,80	20082,00
1043,22	19771,60
1043,65	19494,60
1044,07	19285,20
1044,50	18906,20
1044,92	18674,00
1045,35	18260,00
1045,78	18076,20
1046,20	17816,80
1046,63	17607,60
1047,05	17294,00
1047,48	17218,00
1047,90	17061,20
1048,33	16860,40
1048,75	16869,00
1049,18	16675,40
1049,60	16756,20
1050,03	16580,60
1050,45	16507,60
1050,88	16582,00
1051,30	16478,60
1051,73	16422,00
1052,15	16324,60
1052,58	16189,00
1053,00	16168,80
1053,43	15959,00
1053,85	15945,20
1054,28	15751,80
1054,70	15743,00
1055,13	15473,60
1055,55	15364,40
1055,98	15162,60
1056,40	15106,40
1056,83	14846,20
1057,25	14686,20
1057,68	14399,40
1058,10	14419,40
1058,52	14000,60
1058,95	13868,80
1059,37	13760,00
1059,80	13518,80
1060,22	13398,40
1060,65	13204,80
1061,07	13153,60
1061,50	13026,20
1061,92	12897,80
1062,34	12888,60
1062,77	12896,00
1063,19	12739,00
1063,62	12681,80
1064,04	12645,60
1064,46	12642,00
1064,89	12572,40
1065,31	12446,40
1065,74	12319,60
1066,16	12254,00
1066,58	12295,00
1067,01	12157,00
1067,43	12013,40
1067,86	11873,80
1068,28	11742,20
1068,70	11683,80
1069,13	11482,00
1069,55	11321,00
1069,97	11108,80
1070,40	11143,00
1070,82	11006,20
1071,25	10947,20
1071,67	10698,00
1072,09	10699,20
1072,52	10598,40
1072,94	10493,80
1073,36	10424,00
1073,79	10477,40
1074,21	10366,20
1074,63	10277,80
1075,06	10280,40
1075,48	10288,60
1075,90	10284,60
1076,33	10190,40
1076,75	10178,20
1077,17	10162,60
1077,59	10148,00
1078,02	10038,40
1078,44	10037,20
1078,86	9966,00
1079,29	9700,20
1079,71	9681,00
1080,13	9533,00
1080,56	9424,00
1080,98	9386,20
1081,40	9209,60
1081,82	9129,40
1082,25	9045,80
1082,67	8964,00
1083,09	8849,60
1083,51	8818,00
1083,94	8768,60
1084,36	8758,20
1084,78	8667,40
1085,21	8604,60
1085,63	8653,00
1086,05	8488,20
1086,47	8467,60
1086,89	8487,00
1087,32	8395,20
1087,74	8456,20
1088,16	10247,60
1088,58	8328,00
1089,01	8293,00
1089,43	8226,20
1089,85	8186,40
1090,27	8200,40
1090,69	8069,40
1091,12	7947,20
1091,54	7853,60
1091,96	7750,20
1092,38	7641,40
1092,80	7596,40
1093,23	7461,00
1093,65	7414,20
1094,07	7326,20
1094,49	7275,20
1094,91	7202,40
1095,34	7171,60
1095,76	7067,00
1096,18	7047,20
1096,60	7017,00
1097,02	6932,20
1097,44	6955,80
1097,87	6864,80
1098,29	6898,80
1098,71	6887,60
1099,13	6856,80
1099,55	6761,20
1099,97	6738,60
1100,39	6642,40
1100,82	6574,40
1101,24	6472,80
1101,66	6433,20
1102,08	6297,40
1102,50	6192,00
1102,92	6120,00
1103,34	6078,40
1103,76	6063,60
1104,19	6460,80
1104,61	6010,40
1105,03	5834,00
1105,45	5918,80
1105,87	5879,20
1106,29	5834,40
1106,71	5846,00
1107,13	5716,40
1107,55	5686,80
1107,97	5729,00
1108,39	5526,60
1108,82	5545,20
1109,24	5448,40
1109,66	5374,80
1110,08	5211,40
1110,50	5232,60
1110,92	5130,00
1111,34	5173,60
1111,76	5098,60
1112,18	5103,40
1112,60	5032,80
1113,02	5047,00
1113,44	4912,40
1113,86	4795,20
1114,28	4747,40
1114,70	4663,20
1115,12	4595,60
1115,54	4588,20
1115,96	4504,60
1116,38	4324,00
1116,80	4169,60
1117,22	4019,40
1117,64	3879,60
1118,06	2163,00
1118,48	2200,40
1118,90	2201,20
1119,32	2197,40
>>>>>End Processed Spectral Data<<<<<
