SpectraSuite Data File
++++++++++++++++++++++++++++++++++++
Date: Wed Oct 15 10:07:27 EEST 2014
User: OO Maya
Dark Spectrum Present: No
Reference Spectrum Present: No
Number of Sampled Component Spectra: 1
Spectrometers: MAYP11278
Integration Time (usec): 500000 (MAYP11278)
Spectra Averaged: 5 (MAYP11278)
Boxcar Smoothing: 0 (MAYP11278)
Correct for Electrical Dark: No (MAYP11278)
Strobe/Lamp Enabled: No (MAYP11278)
Correct for Detector Non-linearity: No (MAYP11278)
Correct for Stray Light: No (MAYP11278)
Number of Pixels in Processed Spectrum: 2068
>>>>>Begin Processed Spectral Data<<<<<
188,14	2312,80
188,62	2226,80
189,09	2199,00
189,57	2199,60
190,05	3021,80
190,53	3088,80
191,01	3114,80
191,49	3132,20
191,97	3190,00
192,44	3138,60
192,92	3117,40
193,40	3098,00
193,88	3141,20
194,36	3133,80
194,84	3168,60
195,31	3126,40
195,79	3188,20
196,27	3134,20
196,75	3142,80
197,23	3281,80
197,70	3139,20
198,18	3101,60
198,66	3127,20
199,14	3110,00
199,62	3174,20
200,09	3187,40
200,57	3116,60
201,05	3148,20
201,53	3188,60
202,01	3185,00
202,48	3181,60
202,96	3100,20
203,44	3178,60
203,92	3117,80
204,40	3199,20
204,87	3204,20
205,35	3143,60
205,83	3121,80
206,31	3228,80
206,78	3131,20
207,26	3164,40
207,74	3287,00
208,22	3170,60
208,69	3201,60
209,17	3154,60
209,65	3210,60
210,13	3186,40
210,60	3157,20
211,08	3138,00
211,56	3189,20
212,04	3167,20
212,51	3125,00
212,99	3265,20
213,47	3183,00
213,95	3145,20
214,42	3259,20
214,90	3170,40
215,38	3241,80
215,85	3172,60
216,33	3195,60
216,81	3191,40
217,29	3179,00
217,76	3132,00
218,24	3170,40
218,72	3218,60
219,19	3088,20
219,67	3126,80
220,15	3137,40
220,62	3155,00
221,10	3281,20
221,58	3139,00
222,05	3220,20
222,53	3143,80
223,01	3194,60
223,49	3150,40
223,96	3206,60
224,44	3178,00
224,92	3154,20
225,39	3112,00
225,87	3167,40
226,35	3125,20
226,82	3173,00
227,30	3239,20
227,77	3155,80
228,25	3197,00
228,73	3209,60
229,20	3206,80
229,68	3163,20
230,16	3179,80
230,63	3144,40
231,11	3206,60
231,59	3230,40
232,06	3176,80
232,54	3185,40
233,02	3111,20
233,49	3183,00
233,97	3199,40
234,44	3354,40
234,92	3185,20
235,40	3150,80
235,87	3144,20
236,35	3131,80
236,82	3230,40
237,30	3286,60
237,78	3155,80
238,25	3173,00
238,73	3189,60
239,20	3179,80
239,68	3183,40
240,16	3121,40
240,63	3215,00
241,11	3249,80
241,58	3182,00
242,06	3171,80
242,53	3227,20
243,01	3228,40
243,49	3118,20
243,96	3144,20
244,44	3239,40
244,91	3243,60
245,39	3167,40
245,86	3234,00
246,34	5701,60
246,82	3077,40
247,29	3190,40
247,77	3188,80
248,24	3191,00
248,72	3203,00
249,19	3102,60
249,67	3173,40
250,14	3218,80
250,62	3198,80
251,09	3256,00
251,57	3180,40
252,04	3288,40
252,52	3256,60
253,00	3165,60
253,47	3245,00
253,95	3197,00
254,42	3164,20
254,90	3212,20
255,37	3218,60
255,85	3251,00
256,32	3153,00
256,80	3220,40
257,27	3213,40
257,75	3225,40
258,22	3353,00
258,70	3202,00
259,17	3173,60
259,65	3211,60
260,12	3222,20
260,59	3282,80
261,07	3177,00
261,54	3179,40
262,02	3259,40
262,49	3161,20
262,97	3202,60
263,44	3187,20
263,92	3129,60
264,39	3232,40
264,87	3261,60
265,34	3179,60
265,82	3190,40
266,29	3212,80
266,76	3225,40
267,24	3188,20
267,71	3200,80
268,19	3220,00
268,66	3220,20
269,14	3124,20
269,61	3158,80
270,09	3182,00
270,56	3236,40
271,03	3260,60
271,51	3175,20
271,98	3194,60
272,46	3138,00
272,93	3146,20
273,40	3127,60
273,88	3202,20
274,35	3393,80
274,83	3236,60
275,30	3245,40
275,78	3180,40
276,25	3198,80
276,72	3249,80
277,20	3229,60
277,67	3143,20
278,14	3191,00
278,62	3145,00
279,09	3425,40
279,57	3172,20
280,04	3166,60
280,51	3414,80
280,99	3245,00
281,46	3369,20
281,93	3169,40
282,41	3283,80
282,88	3189,20
283,36	3202,60
283,83	3236,60
284,30	3175,40
284,78	3154,00
285,25	3248,40
285,72	3202,00
286,20	3223,00
286,67	3227,80
287,14	3149,00
287,62	3230,60
288,09	3270,00
288,56	3201,60
289,04	3244,40
289,51	3145,40
289,98	3286,20
290,46	3175,40
290,93	3232,40
291,40	3194,40
291,88	3238,60
292,35	3341,60
292,82	3166,80
293,29	3274,00
293,77	3177,20
294,24	3247,80
294,71	3232,40
295,19	3193,20
295,66	3234,80
296,13	3248,20
296,61	3303,40
297,08	3312,40
297,55	3263,60
298,02	3242,40
298,50	3242,80
298,97	3182,80
299,44	3291,00
299,91	3195,00
300,39	3245,60
300,86	3184,60
301,33	3268,40
301,81	3266,80
302,28	3262,20
302,75	3193,40
303,22	3273,20
303,70	3263,40
304,17	3200,80
304,64	3201,40
305,11	3190,00
305,58	3239,40
306,06	3253,80
306,53	3246,60
307,00	3246,20
307,47	3184,00
307,95	3193,80
308,42	3225,80
308,89	3202,80
309,36	3266,40
309,83	3283,20
310,31	3263,40
310,78	3235,00
311,25	3250,00
311,72	3208,60
312,20	3284,00
312,67	3239,00
313,14	3340,60
313,61	3198,40
314,08	3221,60
314,56	3241,80
315,03	3196,20
315,50	3202,20
315,97	3301,40
316,44	3267,80
316,91	3239,80
317,39	3271,00
317,86	3246,80
318,33	3384,40
318,80	3237,60
319,27	3253,00
319,74	3189,80
320,22	3288,00
320,69	3354,60
321,16	3306,00
321,63	3263,80
322,10	3182,60
322,57	3203,40
323,04	3349,80
323,52	3243,00
323,99	3393,20
324,46	3180,00
324,93	3266,60
325,40	3241,60
325,87	3266,40
326,34	3262,60
326,82	3267,80
327,29	3309,40
327,76	3319,80
328,23	3329,20
328,70	3290,40
329,17	3271,40
329,64	3277,20
330,11	3268,80
330,58	3249,80
331,05	3325,00
331,53	3310,80
332,00	3383,00
332,47	3245,80
332,94	3411,80
333,41	3366,80
333,88	3359,20
334,35	3390,20
334,82	3334,40
335,29	3361,80
335,76	3514,40
336,23	3264,20
336,70	3316,00
337,18	3318,00
337,65	3336,00
338,12	3298,80
338,59	3315,00
339,06	3407,60
339,53	3360,80
340,00	3259,00
340,47	3259,60
340,94	3270,60
341,41	3329,20
341,88	3373,60
342,35	3272,80
342,82	3335,20
343,29	3347,80
343,76	3297,80
344,23	3280,60
344,70	3299,00
345,17	3256,40
345,64	3290,00
346,11	3342,00
346,58	3264,00
347,05	3276,60
347,52	3367,40
347,99	3282,40
348,46	3360,40
348,93	3297,40
349,40	3237,40
349,87	3302,60
350,34	3329,00
350,81	3299,20
351,28	3261,80
351,75	3314,20
352,22	3390,40
352,69	3302,20
353,16	3271,60
353,63	3308,60
354,10	3326,60
354,57	3315,40
355,04	3323,00
355,51	3315,00
355,98	3389,20
356,45	3266,40
356,92	3391,80
357,39	3264,60
357,86	3433,00
358,33	3368,80
358,80	3266,00
359,27	3259,20
359,74	3278,60
360,21	3298,60
360,68	3389,40
361,14	3415,40
361,61	3316,80
362,08	3326,80
362,55	3344,20
363,02	3325,20
363,49	3331,80
363,96	3458,00
364,43	3380,00
364,90	3287,00
365,37	3361,60
365,84	3320,60
366,31	3292,40
366,77	3383,20
367,24	3353,80
367,71	4800,20
368,18	3276,20
368,65	3323,00
369,12	3417,20
369,59	3318,80
370,06	3428,80
370,53	3392,80
370,99	3348,20
371,46	4041,00
371,93	3382,20
372,40	3345,00
372,87	3325,20
373,34	3379,80
373,81	3401,80
374,27	3337,60
374,74	3354,60
375,21	3422,00
375,68	3335,20
376,15	3481,60
376,62	3394,40
377,09	3369,20
377,55	3372,60
378,02	3431,20
378,49	3423,80
378,96	3421,80
379,43	3425,80
379,90	3424,80
380,36	3481,60
380,83	3523,20
381,30	3454,60
381,77	3531,60
382,24	3507,20
382,71	3398,40
383,17	3454,80
383,64	3447,80
384,11	3525,00
384,58	3483,80
385,05	3762,60
385,51	3495,00
385,98	3460,60
386,45	3476,20
386,92	3603,40
387,39	3462,60
387,85	3457,40
388,32	3554,40
388,79	3522,00
389,26	3595,40
389,72	3502,80
390,19	3570,40
390,66	3548,40
391,13	3575,60
391,59	3564,40
392,06	3560,40
392,53	3595,60
393,00	3536,40
393,46	3561,60
393,93	3726,00
394,40	3603,20
394,87	3671,60
395,33	3566,00
395,80	3637,40
396,27	3881,60
396,74	3559,00
397,20	3652,00
397,67	3688,60
398,14	3586,40
398,61	3655,60
399,07	3620,80
399,54	3627,80
400,01	3734,80
400,47	3633,00
400,94	3679,00
401,41	3660,00
401,88	3724,20
402,34	3726,80
402,81	3749,80
403,28	3720,00
403,74	3878,80
404,21	3826,00
404,68	3986,80
405,14	3988,60
405,61	3839,60
406,08	3727,40
406,54	3826,00
407,01	3826,00
407,48	3908,00
407,95	3830,40
408,41	3845,60
408,88	3832,80
409,35	3770,60
409,81	3893,80
410,28	3804,20
410,74	3932,00
411,21	3816,80
411,68	3952,40
412,14	3864,00
412,61	3824,00
413,08	3927,20
413,54	3879,00
414,01	3934,80
414,48	3962,00
414,94	4039,60
415,41	3933,60
415,88	4030,80
416,34	3976,40
416,81	3994,40
417,27	4065,20
417,74	4027,80
418,21	4011,60
418,67	4028,00
419,14	4029,80
419,60	4091,00
420,07	4028,80
420,54	4101,60
421,00	4023,40
421,47	4080,20
421,93	4071,00
422,40	4141,60
422,87	4065,80
423,33	4115,40
423,80	4176,80
424,26	4187,20
424,73	4153,60
425,19	4212,80
425,66	4194,40
426,13	4298,00
426,59	4206,40
427,06	4285,80
427,52	4285,40
427,99	4309,40
428,45	4223,80
428,92	4348,80
429,38	4334,00
429,85	4307,00
430,32	4356,40
430,78	4535,40
431,25	4294,80
431,71	4378,20
432,18	4476,80
432,64	4477,20
433,11	4413,40
433,57	4423,80
434,04	4517,20
434,50	4568,60
434,97	4722,60
435,43	4712,40
435,90	4994,00
436,36	4805,20
436,83	4544,80
437,29	4606,00
437,76	4610,40
438,22	4619,80
438,69	4579,40
439,15	4616,40
439,62	4859,80
440,08	4687,40
440,55	4712,40
441,01	4749,60
441,48	4680,40
441,94	4697,00
442,41	4867,40
442,87	4692,40
443,34	4796,40
443,80	4798,40
444,27	4737,20
444,73	4919,60
445,20	4881,60
445,66	4847,60
446,12	4845,20
446,59	4885,60
447,05	4905,20
447,52	4915,60
447,98	4904,80
448,45	4903,00
448,91	4998,60
449,38	5004,80
449,84	4972,00
450,30	4983,40
450,77	5005,80
451,23	5042,20
451,70	5094,60
452,16	5143,40
452,63	5098,00
453,09	5195,80
453,55	5170,00
454,02	5180,00
454,48	5208,40
454,95	5255,20
455,41	5221,80
455,87	5266,20
456,34	5333,80
456,80	5293,60
457,27	5408,40
457,73	5338,40
458,19	5332,80
458,66	5353,20
459,12	5411,80
459,58	5420,20
460,05	5459,60
460,51	5455,40
460,98	5464,00
461,44	5608,40
461,90	5573,40
462,37	5513,00
462,83	5498,00
463,29	5635,80
463,76	5602,80
464,22	5634,00
464,68	5691,20
465,15	5630,00
465,61	5670,40
466,07	5780,20
466,54	5753,20
467,00	5805,20
467,46	5844,00
467,93	5806,40
468,39	5872,20
468,85	5881,80
469,32	5912,80
469,78	5851,20
470,24	5968,40
470,71	5974,00
471,17	5974,00
471,63	6007,00
472,10	6010,00
472,56	6025,00
473,02	6066,40
473,48	6195,80
473,95	6122,00
474,41	6156,20
474,87	6163,40
475,34	6164,60
475,80	6245,40
476,26	6294,80
476,72	6333,20
477,19	6288,40
477,65	6355,00
478,11	6450,80
478,58	6407,60
479,04	6473,20
479,50	6400,40
479,96	6583,40
480,43	6529,60
480,89	6526,80
481,35	6537,20
481,81	6603,80
482,28	6629,80
482,74	6599,20
483,20	6705,20
483,66	6697,00
484,13	6740,20
484,59	6878,20
485,05	6833,80
485,51	6876,00
485,97	6842,00
486,44	6926,60
486,90	6883,40
487,36	7003,20
487,82	6970,60
488,29	7029,00
488,75	7071,00
489,21	7105,20
489,67	7136,00
490,13	7223,20
490,60	7137,20
491,06	7246,80
491,52	7203,20
491,98	7233,00
492,44	7281,80
492,90	7399,80
493,37	7370,40
493,83	7421,40
494,29	7391,60
494,75	7473,80
495,21	7473,20
495,67	7474,20
496,14	7556,20
496,60	7591,00
497,06	7585,20
497,52	7750,80
497,98	7731,60
498,44	7657,80
498,91	7747,60
499,37	7759,00
499,83	7940,60
500,29	7855,60
500,75	7878,40
501,21	7920,20
501,67	7908,80
502,14	8003,80
502,60	8024,60
503,06	8039,40
503,52	8092,80
503,98	8147,40
504,44	8161,20
504,90	8221,80
505,36	8248,20
505,82	8241,20
506,29	8267,80
506,75	8371,60
507,21	8358,20
507,67	8432,80
508,13	8474,00
508,59	8435,00
509,05	8493,00
509,51	8485,80
509,97	8548,20
510,43	8610,40
510,89	8629,20
511,35	8754,40
511,82	8766,20
512,28	8730,60
512,74	8752,40
513,20	8816,80
513,66	8926,80
514,12	8866,40
514,58	9003,20
515,04	9097,60
515,50	8934,00
515,96	9098,80
516,42	9196,00
516,88	9209,00
517,34	9357,60
517,80	9255,60
518,26	9302,40
518,72	9543,60
519,18	9367,20
519,64	9421,60
520,10	9420,20
520,56	9487,80
521,02	9614,20
521,48	9679,80
521,94	9741,80
522,40	9681,40
522,86	9702,80
523,32	9902,40
523,78	9892,00
524,24	9883,40
524,70	10126,80
525,16	10078,00
525,62	10083,40
526,08	10191,20
526,54	10167,40
527,00	10174,40
527,46	10228,20
527,92	10305,80
528,38	10412,40
528,84	10401,00
529,30	10413,00
529,76	10448,40
530,22	10558,40
530,68	10587,00
531,14	10565,00
531,60	10687,60
532,06	10696,40
532,52	10785,40
532,98	10786,80
533,44	10911,60
533,90	10898,00
534,36	10899,40
534,82	10980,80
535,28	11020,60
535,73	11075,80
536,19	11105,20
536,65	11211,00
537,11	11233,40
537,57	11345,00
538,03	11375,20
538,49	11463,00
538,95	11559,40
539,41	11604,20
539,87	11973,60
540,33	11622,60
540,79	11813,20
541,24	11943,60
541,70	11937,40
542,16	12169,60
542,62	12233,20
543,08	12213,80
543,54	12432,80
544,00	12243,40
544,46	12520,20
544,91	12472,60
545,37	12703,40
545,83	13067,80
546,29	13133,40
546,75	12661,80
547,21	12499,80
547,67	12525,60
548,13	12456,60
548,58	12570,80
549,04	12586,60
549,50	12627,00
549,96	12827,60
550,42	12713,80
550,88	12750,80
551,33	12893,80
551,79	12908,40
552,25	13038,00
552,71	12997,00
553,17	12965,40
553,63	13068,60
554,08	13073,00
554,54	13103,00
555,00	13256,00
555,46	13249,20
555,92	13387,20
556,37	13342,20
556,83	13469,40
557,29	13388,20
557,75	13545,00
558,21	13738,00
558,66	13573,00
559,12	13656,20
559,58	13700,80
560,04	13739,60
560,50	13860,00
560,95	13953,20
561,41	13908,60
561,87	14032,20
562,33	14005,80
562,78	14028,40
563,24	14152,80
563,70	14278,20
564,16	14217,20
564,61	14336,40
565,07	14399,60
565,53	14407,40
565,99	14481,20
566,44	14632,80
566,90	14596,60
567,36	14650,00
567,82	14728,60
568,27	14814,80
568,73	14745,20
569,19	14852,80
569,65	14986,20
570,10	14951,60
570,56	15050,00
571,02	15172,40
571,47	15205,60
571,93	15229,00
572,39	15307,00
572,85	15328,80
573,30	15341,40
573,76	15511,20
574,22	15517,40
574,67	15653,80
575,13	15665,60
575,59	15598,80
576,04	15768,20
576,50	15834,00
576,96	16065,20
577,42	15949,40
577,87	15984,60
578,33	16070,60
578,79	16303,40
579,24	16329,40
579,70	16286,60
580,16	16338,40
580,61	16452,60
581,07	16420,00
581,53	16556,80
581,98	16574,60
582,44	16628,60
582,89	16635,20
583,35	16753,00
583,81	16845,00
584,26	16849,60
584,72	16943,80
585,18	16943,60
585,63	17194,80
586,09	17114,80
586,55	17143,60
587,00	17244,40
587,46	17341,40
587,91	17375,20
588,37	17261,00
588,83	17421,20
589,28	17495,80
589,74	17470,20
590,19	17575,00
590,65	17692,60
591,11	17715,60
591,56	17724,00
592,02	17854,40
592,47	17876,60
592,93	18004,60
593,39	18054,60
593,84	18047,20
594,30	18111,80
594,75	18192,40
595,21	18262,80
595,66	18202,00
596,12	18256,80
596,58	18504,00
597,03	18455,40
597,49	18495,80
597,94	18600,00
598,40	18556,20
598,85	18713,80
599,31	18848,40
599,76	18825,60
600,22	18919,40
600,67	19013,20
601,13	18990,00
601,59	19069,80
602,04	19007,80
602,50	19294,80
602,95	19237,60
603,41	19251,60
603,86	19252,60
604,32	19380,60
604,77	19499,60
605,23	19533,80
605,68	19599,20
606,14	19632,80
606,59	19588,60
607,05	19736,40
607,50	19674,40
607,96	19823,80
608,41	19917,00
608,87	19959,40
609,32	20197,60
609,78	20294,00
610,23	20428,60
610,69	20742,80
611,14	21149,40
611,60	21105,80
612,05	21090,20
612,50	20873,00
612,96	20905,00
613,41	21093,40
613,87	20945,40
614,32	20943,00
614,78	21017,80
615,23	21040,80
615,69	21179,60
616,14	21183,80
616,59	21248,00
617,05	21335,20
617,50	21384,40
617,96	21542,00
618,41	21533,40
618,87	21549,00
619,32	21627,40
619,77	21805,40
620,23	21851,00
620,68	22002,40
621,14	22118,40
621,59	22121,00
622,05	22193,80
622,50	22341,00
622,95	22340,00
623,41	22258,40
623,86	22397,00
624,32	22579,00
624,77	22487,20
625,22	22621,80
625,68	22689,60
626,13	22734,00
626,58	22908,20
627,04	22963,00
627,49	22998,20
627,95	23117,20
628,40	23167,00
628,85	23107,80
629,31	23225,80
629,76	23347,60
630,21	23423,60
630,67	23586,00
631,12	23596,80
631,57	23645,80
632,03	23618,60
632,48	23736,20
632,93	23668,80
633,39	23793,40
633,84	23797,40
634,29	23823,20
634,75	23883,60
635,20	23936,40
635,65	23986,80
636,11	24017,60
636,56	24123,40
637,01	24236,00
637,47	24264,00
637,92	24363,80
638,37	24287,60
638,83	24364,40
639,28	24426,40
639,73	24481,40
640,18	24547,20
640,64	24642,60
641,09	24849,20
641,54	24749,20
642,00	24860,80
642,45	24886,40
642,90	24955,20
643,35	25009,00
643,81	25116,60
644,26	25160,60
644,71	25224,20
645,17	25254,80
645,62	25274,00
646,07	25340,60
646,52	25503,60
646,98	25553,40
647,43	25565,00
647,88	25579,00
648,33	25716,00
648,79	25713,20
649,24	25878,40
649,69	25933,40
650,14	26202,80
650,59	25987,40
651,05	26047,60
651,50	26064,00
651,95	26109,00
652,40	26177,20
652,86	26298,00
653,31	26290,40
653,76	26375,00
654,21	26507,20
654,66	26500,00
655,12	26475,20
655,57	26522,80
656,02	26648,40
656,47	26709,40
656,92	26805,80
657,38	26838,60
657,83	26943,80
658,28	26882,80
658,73	27003,20
659,18	27002,20
659,63	27255,80
660,09	27086,20
660,54	27163,60
660,99	27280,60
661,44	27325,40
661,89	27369,00
662,34	27389,60
662,80	27367,00
663,25	27471,40
663,70	27460,20
664,15	27580,80
664,60	27706,00
665,05	27716,60
665,50	27780,80
665,96	27736,40
666,41	27823,40
666,86	27811,20
667,31	28081,00
667,76	28086,80
668,21	28135,80
668,66	28231,80
669,11	28190,60
669,56	28322,40
670,02	28220,00
670,47	28301,00
670,92	28503,40
671,37	28552,00
671,82	28625,20
672,27	28751,40
672,72	28668,00
673,17	28753,40
673,62	28815,00
674,07	28867,20
674,52	28766,40
674,98	28934,80
675,43	28880,40
675,88	29039,00
676,33	29089,40
676,78	29113,60
677,23	29158,40
677,68	29221,80
678,13	29291,00
678,58	29358,20
679,03	29309,80
679,48	29496,80
679,93	29522,20
680,38	29599,40
680,83	29641,40
681,28	29528,00
681,73	29522,80
682,18	29676,80
682,63	29778,20
683,08	29824,00
683,53	29955,60
683,98	29954,00
684,43	30063,20
684,89	30034,40
685,34	29958,60
685,79	30050,80
686,24	30095,20
686,69	30070,60
687,14	30335,20
687,59	30299,00
688,04	30436,60
688,49	30415,40
688,93	30556,20
689,38	30468,60
689,83	30433,20
690,28	30529,60
690,73	30454,40
691,18	30559,40
691,63	30525,40
692,08	30608,60
692,53	30687,00
692,98	30708,20
693,43	30857,40
693,88	31021,40
694,33	31059,60
694,78	31230,60
695,23	31447,20
695,68	31282,80
696,13	31371,40
696,58	31467,00
697,03	31278,00
697,48	31211,00
697,93	31317,20
698,38	31370,00
698,82	31502,40
699,27	31586,60
699,72	31588,00
700,17	31756,40
700,62	31852,80
701,07	31770,60
701,52	31933,20
701,97	31660,40
702,42	31783,60
702,87	31773,20
703,32	31951,60
703,76	32023,60
704,21	32193,40
704,66	32158,00
705,11	32324,80
705,56	32203,40
706,01	32184,60
706,46	32024,00
706,91	32252,60
707,36	32291,20
707,80	32528,00
708,25	32568,40
708,70	32716,60
709,15	32666,60
709,60	32507,00
710,05	32440,80
710,50	32450,60
710,94	32494,40
711,39	32684,80
711,84	32794,20
712,29	32985,00
712,74	32884,20
713,19	33046,00
713,63	32851,20
714,08	32823,60
714,53	32888,60
714,98	32831,20
715,43	32876,80
715,87	32979,20
716,32	33093,60
716,77	33182,60
717,22	33062,80
717,67	33013,60
718,12	33008,60
718,56	33017,00
719,01	32996,20
719,46	32923,20
719,91	33125,00
720,35	33210,20
720,80	33206,60
721,25	33252,60
721,70	33125,00
722,15	33326,40
722,59	33136,20
723,04	33115,20
723,49	33090,40
723,94	33168,00
724,38	33218,80
724,83	33388,40
725,28	33286,60
725,73	33362,60
726,17	33541,80
726,62	33555,20
727,07	33589,40
727,52	33452,20
727,96	33545,20
728,41	33529,40
728,86	33565,60
729,31	33832,00
729,75	33769,40
730,20	34019,60
730,65	34081,20
731,09	34234,40
731,54	34256,40
731,99	34236,00
732,44	34256,40
732,88	34172,80
733,33	34392,80
733,78	34519,40
734,22	34613,40
734,67	34944,80
735,12	35021,60
735,57	35145,20
736,01	35315,40
736,46	35168,20
736,91	35204,60
737,35	35247,20
737,80	35214,20
738,25	35241,80
738,69	35310,40
739,14	35470,20
739,59	35497,60
740,03	35749,00
740,48	35722,80
740,93	35711,80
741,37	35754,20
741,82	35735,80
742,26	35726,60
742,71	35617,40
743,16	35619,00
743,60	35694,80
744,05	35789,60
744,50	35880,60
744,94	35973,00
745,39	36051,00
745,84	36127,40
746,28	36005,40
746,73	35784,40
747,17	35735,20
747,62	35765,80
748,07	35748,20
748,51	35852,80
748,96	35850,40
749,40	35971,20
749,85	36204,40
750,30	36146,40
750,74	36108,80
751,19	36122,00
751,63	36061,00
752,08	35903,80
752,53	35833,60
752,97	35914,00
753,42	35819,20
753,86	35865,20
754,31	35921,00
754,75	36138,80
755,20	36181,80
755,64	36175,20
756,09	36072,40
756,54	35985,00
756,98	35766,40
757,43	35922,60
757,87	35719,00
758,32	35868,20
758,76	35962,80
759,21	36029,60
759,65	36071,20
760,10	36149,60
760,54	36030,00
760,99	35984,20
761,43	35840,20
761,88	35733,40
762,33	35605,60
762,77	35782,40
763,22	35888,40
763,66	36255,00
764,11	36426,80
764,55	36447,00
765,00	36558,60
765,44	36491,00
765,89	36351,80
766,33	36228,80
766,77	36120,60
767,22	36050,00
767,66	36149,00
768,11	36348,00
768,55	36663,00
769,00	36742,40
769,44	37183,60
769,89	37165,40
770,33	37187,60
770,78	37175,00
771,22	37098,20
771,67	36977,80
772,11	36949,40
772,56	36806,00
773,00	36785,60
773,44	36815,00
773,89	36796,60
774,33	36844,40
774,78	37048,20
775,22	37239,00
775,67	37406,80
776,11	37513,80
776,55	37512,60
777,00	37481,80
777,44	37263,60
777,89	37133,20
778,33	37076,80
778,77	36931,00
779,22	36938,40
779,66	37134,00
780,11	37236,40
780,55	37395,00
780,99	37497,60
781,44	37498,60
781,88	37475,80
782,33	37442,00
782,77	37273,80
783,21	37168,20
783,66	36871,20
784,10	36742,00
784,55	36687,40
784,99	36698,40
785,43	36787,00
785,88	37014,40
786,32	37079,60
786,76	37426,80
787,21	37474,40
787,65	37312,00
788,09	37128,20
788,54	37027,00
788,98	36736,40
789,42	36763,20
789,87	36557,80
790,31	36488,80
790,75	36468,80
791,20	36647,80
791,64	37059,80
792,08	37074,60
792,53	37219,60
792,97	37302,60
793,41	37539,80
793,86	37127,20
794,30	36720,60
794,74	36428,00
795,18	36183,80
795,63	36103,60
796,07	36117,40
796,51	36266,40
796,96	36583,60
797,40	36800,20
797,84	36818,60
798,28	37082,40
798,73	37090,80
799,17	36948,60
799,61	36550,00
800,06	36385,40
800,50	36120,40
800,94	35873,60
801,38	35916,00
801,83	35932,80
802,27	36078,20
802,71	36481,80
803,15	36858,00
803,60	36990,60
804,04	37068,80
804,48	36910,60
804,92	36861,80
805,37	36447,20
805,81	36173,20
806,25	35722,40
806,69	35440,80
807,13	35574,40
807,58	35555,40
808,02	35802,20
808,46	35970,60
808,90	36224,80
809,34	36548,40
809,79	36658,40
810,23	36777,40
810,67	36883,80
811,11	36699,60
811,55	36473,40
812,00	35956,00
812,44	35704,00
812,88	35577,60
813,32	35417,00
813,76	35354,20
814,21	35321,00
814,65	35551,80
815,09	36054,80
815,53	36306,00
815,97	36537,80
816,41	36672,80
816,85	36611,40
817,30	36633,20
817,74	36408,80
818,18	36124,80
818,62	35718,00
819,06	35425,80
819,50	35363,00
819,94	35243,20
820,39	35291,00
820,83	35401,80
821,27	35734,40
821,71	35909,00
822,15	36362,40
822,59	36451,20
823,03	36589,60
823,47	36670,80
823,92	36494,00
824,36	36329,60
824,80	35985,40
825,24	35781,40
825,68	35566,00
826,12	35308,00
826,56	35287,40
827,00	35423,80
827,44	35682,00
827,88	36036,40
828,32	36396,80
828,77	36450,20
829,21	36654,60
829,65	36637,20
830,09	36464,20
830,53	36483,80
830,97	36100,60
831,41	35777,80
831,85	35432,00
832,29	35347,40
832,73	35387,00
833,17	35601,80
833,61	36022,60
834,05	36358,00
834,49	36783,20
834,93	36946,80
835,37	37069,60
835,81	36923,80
836,25	36579,40
836,69	36136,40
837,13	35779,60
837,57	35485,00
838,01	35243,20
838,45	35220,80
838,89	35491,00
839,33	35704,20
839,77	36075,20
840,21	36594,00
840,65	37010,40
841,09	37551,80
841,53	37489,40
841,97	37434,20
842,41	37269,40
842,85	36946,40
843,29	36383,40
843,73	35874,40
844,17	35467,20
844,61	35259,40
845,05	35273,40
845,49	35474,40
845,93	35921,40
846,37	36310,40
846,81	36759,80
847,25	37292,20
847,69	37715,00
848,13	37909,60
848,57	38097,20
849,01	37968,00
849,45	37950,80
849,89	37649,60
850,32	37250,60
850,76	36790,60
851,20	36528,20
851,64	36170,00
852,08	36030,40
852,52	35906,60
852,96	36033,40
853,40	36248,00
853,84	36770,60
854,28	37256,00
854,72	38131,20
855,16	38514,80
855,59	38668,80
856,03	38537,40
856,47	38412,80
856,91	37851,60
857,35	37281,40
857,79	36555,20
858,23	36116,80
858,67	35942,60
859,10	35799,00
859,54	36234,40
859,98	36758,20
860,42	37358,60
860,86	37857,60
861,30	38545,40
861,74	38782,00
862,17	38842,80
862,61	38994,00
863,05	38755,80
863,49	38288,00
863,93	37926,60
864,37	37249,80
864,80	36928,00
865,24	36799,80
865,68	36805,60
866,12	36963,00
866,56	37175,80
867,00	37529,20
867,43	37902,40
867,87	38635,80
868,31	39039,60
868,75	39261,20
869,19	39599,20
869,62	39295,60
870,06	38770,40
870,50	38151,00
870,94	37117,60
871,38	36509,40
871,81	36266,00
872,25	36194,20
872,69	36435,80
873,13	36815,80
873,56	37380,40
874,00	38173,60
874,44	38802,80
874,88	39216,20
875,31	39536,40
875,75	39919,60
876,19	39701,20
876,63	39720,20
877,06	39204,60
877,50	38467,00
877,94	38079,40
878,38	37595,80
878,81	37055,80
879,25	36775,80
879,69	36736,80
880,13	36691,40
880,56	36886,00
881,00	37392,60
881,44	38277,60
881,87	39162,20
882,31	39879,40
882,75	40501,60
883,19	40806,40
883,62	40804,00
884,06	40500,20
884,50	40012,80
884,93	39351,80
885,37	38584,60
885,81	38041,20
886,24	37365,00
886,68	37044,00
887,12	36915,80
887,55	36873,20
887,99	37275,20
888,43	37789,40
888,86	38243,40
889,30	39096,60
889,74	39423,80
890,17	39932,00
890,61	40497,80
891,05	41089,40
891,48	41406,20
891,92	41508,00
892,36	40910,80
892,79	40191,20
893,23	39466,80
893,67	38758,40
894,10	38294,60
894,54	37841,00
894,97	37727,80
895,41	37574,40
895,85	37780,00
896,28	38411,80
896,72	39246,40
897,16	40113,40
897,59	40635,20
898,03	41496,60
898,46	42140,80
898,90	42492,80
899,34	42240,60
899,77	41825,20
900,21	41207,20
900,64	40601,20
901,08	39843,80
901,51	39032,20
901,95	38337,20
902,39	38003,60
902,82	37753,00
903,26	37733,20
903,69	38284,00
904,13	38524,40
904,56	38846,40
905,00	39308,20
905,43	39877,40
905,87	40285,40
906,31	40803,20
906,74	41087,80
907,18	41599,60
907,61	41751,40
908,05	41685,40
908,48	41380,60
908,92	40874,40
909,35	40186,80
909,79	39383,80
910,22	38607,20
910,66	38233,00
911,09	38079,80
911,53	38186,20
911,96	38634,00
912,40	39219,80
912,83	40015,00
913,27	40941,20
913,70	41694,20
914,14	42486,80
914,57	43065,80
915,01	43086,00
915,44	42703,20
915,88	41694,20
916,31	40609,20
916,75	39580,80
917,18	38897,60
917,62	38564,60
918,05	38613,80
918,49	38841,40
918,92	39018,80
919,35	39287,80
919,79	40111,00
920,22	40260,00
920,66	40765,60
921,09	41410,20
921,53	42022,20
921,96	42506,60
922,40	42773,20
922,83	42851,60
923,26	42857,20
923,70	42582,60
924,13	42093,40
924,57	41399,20
925,00	40727,80
925,44	39952,80
925,87	39244,60
926,30	38489,60
926,74	37961,60
927,17	38017,40
927,61	38122,40
928,04	38740,20
928,47	39183,20
928,91	39678,60
929,34	40488,00
929,77	41123,40
930,21	41566,20
930,64	41746,80
931,08	41497,00
931,51	40952,00
931,94	40177,40
932,38	39517,20
932,81	38796,00
933,24	37916,20
933,68	36782,00
934,11	36078,40
934,54	35652,80
934,98	35383,60
935,41	35264,00
935,84	35201,60
936,28	35372,60
936,71	35475,20
937,14	36039,80
937,58	36194,40
938,01	36255,20
938,44	36095,20
938,88	35731,40
939,31	34989,20
939,74	34177,60
940,18	33323,40
940,61	32314,80
941,04	31457,80
941,48	30497,40
941,91	30038,60
942,34	29617,60
942,77	29467,80
943,21	29616,40
943,64	29736,60
944,07	29981,60
944,51	30295,20
944,94	30737,60
945,37	31133,40
945,80	31445,60
946,24	31973,60
946,67	32487,20
947,10	33046,20
947,53	33105,20
947,97	33333,00
948,40	33260,00
948,83	32968,40
949,26	32507,80
949,70	32068,20
950,13	31789,60
950,56	31395,40
950,99	30922,80
951,43	30891,20
951,86	31047,00
952,29	31385,60
952,72	32252,40
953,15	33078,60
953,59	34033,20
954,02	34813,40
954,45	35597,40
954,88	36152,60
955,31	36356,60
955,75	36253,00
956,18	36092,20
956,61	35633,60
957,04	34974,80
957,47	34589,00
957,91	33763,60
958,34	33461,00
958,77	33143,80
959,20	32992,60
959,63	32888,80
960,06	32846,80
960,50	33154,60
960,93	33560,80
961,36	34067,60
961,79	34620,60
962,22	35332,20
962,65	35968,00
963,09	36404,80
963,52	37076,20
963,95	37315,40
964,38	37344,60
964,81	37063,20
965,24	36511,20
965,67	36029,40
966,10	35093,80
966,54	34363,00
966,97	33656,40
967,40	33130,00
967,83	32920,60
968,26	32777,60
968,69	33052,00
969,12	32994,00
969,55	32927,60
969,98	32937,20
970,42	33048,80
970,85	33395,80
971,28	33761,00
971,71	34107,60
972,14	34672,00
972,57	35052,80
973,00	35650,40
973,43	35779,60
973,86	35878,00
974,29	35504,20
974,72	34885,00
975,15	34232,80
975,58	33511,60
976,01	32855,80
976,45	32369,00
976,88	31968,60
977,31	31651,80
977,74	31664,80
978,17	31529,40
978,60	31721,20
979,03	32073,20
979,46	32439,60
979,89	32954,80
980,32	33179,60
980,75	33613,40
981,18	34058,20
981,61	34381,00
982,04	34510,80
982,47	34433,80
982,90	34464,80
983,33	34483,20
983,76	34279,60
984,19	34043,00
984,62	33713,60
985,05	33172,00
985,48	32580,60
985,91	32186,40
986,34	31563,20
986,77	30937,60
987,20	30414,60
987,63	30296,60
988,06	30195,00
988,49	30203,60
988,92	30457,40
989,35	30654,80
989,78	30973,20
990,20	31189,20
990,63	31695,20
991,06	32154,60
991,49	32393,20
991,92	32753,20
992,35	32804,00
992,78	32528,80
993,21	32343,60
993,64	31971,40
994,07	31539,80
994,50	31026,80
994,93	30586,00
995,36	30147,60
995,79	29611,20
996,21	29262,00
996,64	28959,00
997,07	28619,00
997,50	28633,40
997,93	28575,20
998,36	28601,40
998,79	28812,80
999,22	28846,80
999,65	29208,20
1000,07	29430,20
1000,50	29762,40
1000,93	30139,80
1001,36	30219,80
1001,79	30267,60
1002,22	30210,80
1002,65	29884,20
1003,08	29391,20
1003,50	28942,60
1003,93	28423,20
1004,36	27717,60
1004,79	27220,60
1005,22	26723,80
1005,65	26476,40
1006,07	26199,20
1006,50	25949,40
1006,93	25869,00
1007,36	25839,00
1007,79	25786,60
1008,22	25810,20
1008,64	25889,60
1009,07	25975,60
1009,50	26214,80
1009,93	26186,00
1010,36	26214,60
1010,78	26267,00
1011,21	26306,00
1011,64	26400,80
1012,07	26337,00
1012,50	26272,20
1012,92	26063,20
1013,35	25865,80
1013,78	25407,40
1014,21	24931,00
1014,64	24476,60
1015,06	23964,80
1015,49	23686,40
1015,92	23387,40
1016,35	23348,00
1016,77	23255,60
1017,20	23488,20
1017,63	23684,20
1018,06	24431,60
1018,48	24156,00
1018,91	24246,00
1019,34	24647,20
1019,77	24859,80
1020,19	24974,00
1020,62	25062,60
1021,05	25148,20
1021,47	25337,20
1021,90	25524,80
1022,33	25621,60
1022,76	25592,60
1023,18	25898,00
1023,61	25601,20
1024,04	25250,80
1024,46	24965,80
1024,89	24635,20
1025,32	24357,20
1025,75	24118,80
1026,17	23874,20
1026,60	23719,80
1027,03	23714,20
1027,45	23599,80
1027,88	23443,40
1028,31	23539,80
1028,73	23641,40
1029,16	23726,60
1029,59	24112,00
1030,01	24017,40
1030,44	24189,40
1030,87	24191,40
1031,29	24187,60
1031,72	24040,00
1032,15	23887,00
1032,57	23683,40
1033,00	23391,60
1033,42	23207,20
1033,85	22782,60
1034,28	22364,20
1034,70	22054,80
1035,13	21718,40
1035,56	21224,60
1035,98	21137,00
1036,41	20704,80
1036,83	20458,60
1037,26	20266,60
1037,69	20127,20
1038,11	20056,60
1038,54	20054,40
1038,96	20004,40
1039,39	19962,00
1039,82	20044,00
1040,24	20051,60
1040,67	20069,20
1041,09	20089,00
1041,52	20027,40
1041,95	20095,60
1042,37	19854,20
1042,80	19688,60
1043,22	19481,80
1043,65	19212,00
1044,07	18916,20
1044,50	18653,20
1044,92	18322,20
1045,35	18070,20
1045,78	17738,00
1046,20	17589,60
1046,63	17343,80
1047,05	17077,60
1047,48	16944,60
1047,90	16744,20
1048,33	16534,40
1048,75	16512,60
1049,18	16465,60
1049,60	16452,20
1050,03	16318,20
1050,45	16274,80
1050,88	16256,00
1051,30	16198,80
1051,73	16166,00
1052,15	16075,60
1052,58	15989,00
1053,00	15893,40
1053,43	15774,80
1053,85	15768,20
1054,28	15529,20
1054,70	15451,40
1055,13	15227,80
1055,55	15044,80
1055,98	14922,00
1056,40	14805,20
1056,83	14589,40
1057,25	14409,40
1057,68	14175,60
1058,10	14188,60
1058,52	13784,20
1058,95	13629,00
1059,37	13499,60
1059,80	13284,80
1060,22	13175,60
1060,65	13052,80
1061,07	12941,00
1061,50	12782,40
1061,92	12661,80
1062,34	12673,20
1062,77	12666,40
1063,19	12530,20
1063,62	12484,80
1064,04	12401,20
1064,46	12437,60
1064,89	12352,40
1065,31	12270,80
1065,74	12129,00
1066,16	12049,80
1066,58	12083,20
1067,01	11937,40
1067,43	11844,20
1067,86	11686,60
1068,28	11522,80
1068,70	11524,20
1069,13	11272,60
1069,55	11130,60
1069,97	10983,80
1070,40	10964,00
1070,82	10920,80
1071,25	10738,20
1071,67	10582,80
1072,09	10554,60
1072,52	10378,00
1072,94	10316,20
1073,36	10277,40
1073,79	10354,60
1074,21	10185,00
1074,63	10123,00
1075,06	10108,40
1075,48	10109,60
1075,90	10125,20
1076,33	10047,60
1076,75	10002,60
1077,17	9995,00
1077,59	9991,60
1078,02	9888,40
1078,44	9877,60
1078,86	9805,80
1079,29	9570,60
1079,71	9587,60
1080,13	9398,60
1080,56	9294,20
1080,98	9207,00
1081,40	9103,80
1081,82	9014,20
1082,25	8983,60
1082,67	8854,40
1083,09	8737,60
1083,51	8731,60
1083,94	8654,00
1084,36	8657,20
1084,78	8526,40
1085,21	8501,40
1085,63	8537,60
1086,05	8397,60
1086,47	8425,20
1086,89	8407,80
1087,32	8263,40
1087,74	8384,40
1088,16	10288,40
1088,58	8272,00
1089,01	8222,00
1089,43	8184,60
1089,85	8121,40
1090,27	8131,00
1090,69	7979,80
1091,12	7884,40
1091,54	7773,80
1091,96	7683,00
1092,38	7593,60
1092,80	7536,40
1093,23	7416,80
1093,65	7372,40
1094,07	7308,80
1094,49	7245,80
1094,91	7201,80
1095,34	7093,00
1095,76	7062,40
1096,18	7045,60
1096,60	6994,80
1097,02	6893,60
1097,44	6902,60
1097,87	6840,40
1098,29	6896,00
1098,71	6881,20
1099,13	6830,20
1099,55	6777,00
1099,97	6726,60
1100,39	6660,40
1100,82	6581,80
1101,24	6485,00
1101,66	6433,80
1102,08	6313,40
1102,50	6208,60
1102,92	6209,40
1103,34	6094,80
1103,76	6061,60
1104,19	6529,00
1104,61	6077,40
1105,03	5865,20
1105,45	5953,60
1105,87	5935,60
1106,29	5858,20
1106,71	5861,00
1107,13	5755,80
1107,55	5773,00
1107,97	5810,60
1108,39	5638,60
1108,82	5597,20
1109,24	5525,60
1109,66	5442,00
1110,08	5303,40
1110,50	5316,80
1110,92	5222,00
1111,34	5244,00
1111,76	5176,80
1112,18	5195,60
1112,60	5151,00
1113,02	5132,80
1113,44	5022,20
1113,86	4903,80
1114,28	4869,00
1114,70	4768,00
1115,12	4665,00
1115,54	4670,20
1115,96	4577,00
1116,38	4413,40
1116,80	4242,40
1117,22	4074,80
1117,64	3977,40
1118,06	2160,20
1118,48	2203,00
1118,90	2199,80
1119,32	2199,60
>>>>>End Processed Spectral Data<<<<<
