SpectraSuite Data File
++++++++++++++++++++++++++++++++++++
Date: Wed Oct 15 10:09:04 EEST 2014
User: OO Maya
Dark Spectrum Present: No
Reference Spectrum Present: No
Number of Sampled Component Spectra: 1
Spectrometers: MAYP11278
Integration Time (usec): 500000 (MAYP11278)
Spectra Averaged: 5 (MAYP11278)
Boxcar Smoothing: 0 (MAYP11278)
Correct for Electrical Dark: No (MAYP11278)
Strobe/Lamp Enabled: No (MAYP11278)
Correct for Detector Non-linearity: No (MAYP11278)
Correct for Stray Light: No (MAYP11278)
Number of Pixels in Processed Spectrum: 2068
>>>>>Begin Processed Spectral Data<<<<<
188,14	2310,40
188,62	2227,20
189,09	2198,00
189,57	2198,40
190,05	2992,40
190,53	3076,60
191,01	3112,00
191,49	3133,00
191,97	3204,60
192,44	3135,20
192,92	3128,00
193,40	3083,00
193,88	3144,60
194,36	3146,20
194,84	3151,40
195,31	3132,80
195,79	3169,80
196,27	3118,60
196,75	3124,20
197,23	3274,80
197,70	3124,80
198,18	3097,40
198,66	3119,40
199,14	3103,40
199,62	3163,60
200,09	3173,40
200,57	3130,60
201,05	3110,80
201,53	3173,40
202,01	3174,60
202,48	3168,60
202,96	3092,00
203,44	3149,00
203,92	3110,80
204,40	3186,40
204,87	3215,40
205,35	3115,40
205,83	3128,00
206,31	3221,40
206,78	3138,40
207,26	3146,00
207,74	3282,60
208,22	3162,40
208,69	3191,00
209,17	3133,60
209,65	3190,40
210,13	3184,20
210,60	3140,80
211,08	3157,40
211,56	3192,80
212,04	3152,20
212,51	3119,00
212,99	3246,80
213,47	3174,20
213,95	3131,20
214,42	3252,80
214,90	3165,20
215,38	3229,80
215,85	3175,00
216,33	3188,80
216,81	3182,80
217,29	3182,00
217,76	3109,60
218,24	3170,00
218,72	3227,60
219,19	3107,80
219,67	3113,80
220,15	3132,00
220,62	3159,60
221,10	3278,00
221,58	3141,20
222,05	3208,80
222,53	3126,40
223,01	3204,20
223,49	3139,80
223,96	3201,20
224,44	3171,60
224,92	3146,60
225,39	3121,40
225,87	3160,20
226,35	3136,80
226,82	3140,20
227,30	3228,60
227,77	3156,20
228,25	3182,20
228,73	3213,00
229,20	3206,40
229,68	3157,40
230,16	3158,60
230,63	3142,80
231,11	3186,60
231,59	3232,40
232,06	3180,60
232,54	3172,00
233,02	3110,20
233,49	3172,20
233,97	3169,80
234,44	3352,40
234,92	3183,00
235,40	3145,40
235,87	3137,20
236,35	3108,80
236,82	3225,40
237,30	3277,40
237,78	3138,00
238,25	3168,00
238,73	3186,40
239,20	3182,40
239,68	3164,20
240,16	3115,00
240,63	3220,80
241,11	3244,80
241,58	3186,20
242,06	3134,20
242,53	3199,00
243,01	3234,40
243,49	3120,00
243,96	3129,80
244,44	3203,00
244,91	3254,60
245,39	3137,60
245,86	3230,20
246,34	5551,60
246,82	3075,00
247,29	3175,00
247,77	3178,40
248,24	3200,40
248,72	3191,60
249,19	3100,80
249,67	3172,80
250,14	3211,00
250,62	3183,20
251,09	3243,20
251,57	3194,00
252,04	3301,40
252,52	3260,00
253,00	3140,40
253,47	3227,00
253,95	3186,60
254,42	3155,80
254,90	3198,60
255,37	3199,60
255,85	3223,80
256,32	3154,40
256,80	3210,40
257,27	3190,40
257,75	3232,00
258,22	3329,00
258,70	3183,60
259,17	3149,40
259,65	3179,60
260,12	3205,20
260,59	3280,60
261,07	3178,40
261,54	3171,40
262,02	3249,40
262,49	3146,60
262,97	3207,40
263,44	3194,00
263,92	3118,00
264,39	3218,20
264,87	3240,60
265,34	3160,80
265,82	3191,40
266,29	3217,60
266,76	3223,00
267,24	3168,60
267,71	3185,80
268,19	3223,00
268,66	3210,20
269,14	3122,40
269,61	3151,40
270,09	3148,60
270,56	3236,00
271,03	3236,60
271,51	3186,20
271,98	3193,40
272,46	3126,80
272,93	3126,20
273,40	3103,00
273,88	3203,20
274,35	3394,80
274,83	3229,40
275,30	3238,80
275,78	3176,40
276,25	3191,40
276,72	3229,20
277,20	3250,40
277,67	3144,40
278,14	3198,20
278,62	3139,80
279,09	3410,40
279,57	3170,20
280,04	3180,40
280,51	3405,60
280,99	3258,20
281,46	3376,40
281,93	3163,40
282,41	3271,80
282,88	3176,40
283,36	3186,60
283,83	3221,80
284,30	3153,40
284,78	3141,60
285,25	3221,80
285,72	3184,60
286,20	3206,80
286,67	3212,00
287,14	3144,80
287,62	3211,20
288,09	3273,80
288,56	3188,40
289,04	3236,80
289,51	3107,80
289,98	3285,00
290,46	3165,60
290,93	3232,40
291,40	3174,60
291,88	3233,00
292,35	3324,20
292,82	3141,60
293,29	3256,60
293,77	3182,00
294,24	3211,40
294,71	3233,60
295,19	3174,20
295,66	3222,40
296,13	3220,00
296,61	3321,00
297,08	3286,40
297,55	3240,60
298,02	3234,40
298,50	3244,20
298,97	3178,00
299,44	3308,20
299,91	3199,40
300,39	3234,60
300,86	3176,20
301,33	3257,00
301,81	3249,00
302,28	3253,60
302,75	3164,40
303,22	3243,60
303,70	3262,80
304,17	3195,80
304,64	3194,60
305,11	3171,00
305,58	3218,40
306,06	3235,20
306,53	3224,00
307,00	3247,20
307,47	3183,40
307,95	3193,60
308,42	3217,80
308,89	3189,20
309,36	3261,40
309,83	3260,60
310,31	3249,80
310,78	3231,40
311,25	3241,80
311,72	3220,00
312,20	3281,40
312,67	3233,20
313,14	3326,80
313,61	3180,00
314,08	3215,20
314,56	3221,80
315,03	3186,80
315,50	3175,60
315,97	3275,80
316,44	3245,20
316,91	3242,40
317,39	3247,00
317,86	3227,20
318,33	3358,20
318,80	3218,00
319,27	3207,60
319,74	3163,00
320,22	3264,20
320,69	3344,20
321,16	3266,40
321,63	3228,20
322,10	3152,20
322,57	3183,80
323,04	3333,20
323,52	3218,80
323,99	3360,00
324,46	3158,60
324,93	3238,60
325,40	3227,20
325,87	3217,40
326,34	3237,20
326,82	3239,00
327,29	3277,20
327,76	3284,40
328,23	3264,60
328,70	3267,40
329,17	3228,20
329,64	3225,40
330,11	3230,00
330,58	3210,20
331,05	3286,20
331,53	3289,40
332,00	3346,20
332,47	3211,80
332,94	3365,60
333,41	3314,60
333,88	3310,20
334,35	3349,60
334,82	3277,60
335,29	3306,80
335,76	3472,00
336,23	3223,40
336,70	3264,60
337,18	3257,00
337,65	3271,60
338,12	3240,00
338,59	3252,00
339,06	3350,20
339,53	3305,80
340,00	3210,20
340,47	3216,40
340,94	3212,60
341,41	3279,40
341,88	3312,40
342,35	3227,40
342,82	3264,00
343,29	3282,40
343,76	3266,60
344,23	3213,80
344,70	3233,20
345,17	3181,40
345,64	3231,20
346,11	3258,60
346,58	3202,00
347,05	3191,20
347,52	3301,40
347,99	3192,00
348,46	3283,20
348,93	3221,00
349,40	3174,40
349,87	3211,80
350,34	3249,20
350,81	3208,60
351,28	3183,80
351,75	3224,60
352,22	3310,60
352,69	3225,20
353,16	3198,00
353,63	3227,80
354,10	3237,80
354,57	3233,80
355,04	3233,60
355,51	3224,60
355,98	3297,20
356,45	3178,40
356,92	3296,40
357,39	3177,20
357,86	3322,40
358,33	3259,80
358,80	3150,40
359,27	3172,40
359,74	3181,00
360,21	3189,80
360,68	3263,60
361,14	3316,20
361,61	3201,80
362,08	3207,60
362,55	3212,60
363,02	3198,40
363,49	3219,20
363,96	3311,00
364,43	3221,00
364,90	3187,80
365,37	3249,40
365,84	3213,20
366,31	3173,60
366,77	3239,20
367,24	3223,80
367,71	4691,20
368,18	3114,20
368,65	3184,40
369,12	3279,40
369,59	3164,80
370,06	3271,00
370,53	3239,20
370,99	3192,60
371,46	3849,40
371,93	3224,60
372,40	3178,40
372,87	3160,20
373,34	3208,80
373,81	3233,40
374,27	3163,20
374,74	3181,00
375,21	3231,60
375,68	3141,40
376,15	3310,60
376,62	3211,20
377,09	3174,00
377,55	3163,40
378,02	3245,40
378,49	3235,80
378,96	3212,40
379,43	3218,60
379,90	3199,60
380,36	3233,60
380,83	3301,20
381,30	3208,40
381,77	3315,80
382,24	3300,20
382,71	3157,80
383,17	3239,80
383,64	3211,20
384,11	3264,20
384,58	3227,20
385,05	3495,20
385,51	3239,40
385,98	3211,40
386,45	3229,40
386,92	3336,40
387,39	3190,60
387,85	3193,60
388,32	3287,20
388,79	3262,80
389,26	3301,40
389,72	3214,00
390,19	3272,40
390,66	3260,40
391,13	3280,40
391,59	3296,80
392,06	3270,60
392,53	3306,60
393,00	3276,40
393,46	3284,80
393,93	3445,40
394,40	3313,60
394,87	3391,60
395,33	3296,20
395,80	3386,20
396,27	3615,20
396,74	3314,00
397,20	3421,00
397,67	3442,00
398,14	3378,40
398,61	3414,80
399,07	3415,60
399,54	3402,60
400,01	3529,20
400,47	3431,80
400,94	3489,80
401,41	3469,60
401,88	3542,00
402,34	3543,60
402,81	3569,40
403,28	3558,40
403,74	3724,00
404,21	3656,40
404,68	3781,40
405,14	3803,80
405,61	3731,80
406,08	3610,40
406,54	3711,40
407,01	3699,20
407,48	3820,20
407,95	3731,00
408,41	3740,80
408,88	3761,80
409,35	3694,40
409,81	3843,20
410,28	3728,60
410,74	3855,20
411,21	3763,20
411,68	3898,20
412,14	3824,20
412,61	3768,00
413,08	3892,00
413,54	3837,80
414,01	3897,40
414,48	3938,80
414,94	3990,00
415,41	3889,40
415,88	4027,80
416,34	3956,00
416,81	3942,20
417,27	4063,80
417,74	3997,80
418,21	3984,80
418,67	4002,20
419,14	4007,80
419,60	4065,00
420,07	3977,80
420,54	4078,80
421,00	3992,80
421,47	4067,20
421,93	4044,80
422,40	4110,60
422,87	4074,60
423,33	4118,20
423,80	4125,40
424,26	4191,60
424,73	4157,20
425,19	4187,40
425,66	4184,80
426,13	4289,80
426,59	4166,20
427,06	4299,40
427,52	4270,00
427,99	4299,80
428,45	4214,60
428,92	4313,60
429,38	4295,40
429,85	4297,00
430,32	4326,00
430,78	4525,80
431,25	4282,00
431,71	4357,40
432,18	4470,20
432,64	4449,00
433,11	4402,00
433,57	4427,80
434,04	4482,00
434,50	4532,60
434,97	4690,40
435,43	4642,20
435,90	4918,60
436,36	4742,80
436,83	4517,60
437,29	4638,40
437,76	4619,00
438,22	4621,60
438,69	4559,00
439,15	4594,40
439,62	4887,80
440,08	4689,00
440,55	4739,40
441,01	4764,80
441,48	4651,60
441,94	4723,00
442,41	4889,80
442,87	4695,20
443,34	4787,00
443,80	4801,20
444,27	4759,40
444,73	4933,40
445,20	4855,60
445,66	4826,40
446,12	4893,60
446,59	4893,60
447,05	4871,20
447,52	4941,20
447,98	4900,00
448,45	4896,40
448,91	4976,00
449,38	5011,00
449,84	4983,40
450,30	4981,20
450,77	5001,80
451,23	5014,20
451,70	5108,20
452,16	5134,60
452,63	5098,00
453,09	5206,40
453,55	5158,00
454,02	5186,60
454,48	5188,00
454,95	5249,40
455,41	5206,40
455,87	5265,80
456,34	5332,00
456,80	5265,40
457,27	5372,20
457,73	5344,00
458,19	5375,80
458,66	5339,00
459,12	5418,20
459,58	5445,80
460,05	5456,40
460,51	5476,20
460,98	5445,80
461,44	5591,40
461,90	5603,00
462,37	5508,20
462,83	5520,60
463,29	5658,40
463,76	5633,00
464,22	5673,20
464,68	5698,80
465,15	5664,00
465,61	5668,20
466,07	5770,00
466,54	5764,80
467,00	5810,80
467,46	5865,80
467,93	5816,80
468,39	5900,00
468,85	5922,40
469,32	5961,80
469,78	5880,20
470,24	5975,40
470,71	5976,20
471,17	5969,80
471,63	6034,00
472,10	6006,40
472,56	6066,40
473,02	6086,40
473,48	6213,80
473,95	6181,20
474,41	6145,00
474,87	6206,00
475,34	6180,20
475,80	6279,00
476,26	6296,20
476,72	6351,80
477,19	6340,80
477,65	6390,00
478,11	6476,20
478,58	6444,20
479,04	6516,20
479,50	6431,60
479,96	6601,20
480,43	6570,40
480,89	6588,20
481,35	6546,20
481,81	6636,80
482,28	6674,40
482,74	6623,20
483,20	6707,60
483,66	6684,20
484,13	6780,60
484,59	6905,60
485,05	6868,00
485,51	6897,80
485,97	6845,20
486,44	6969,80
486,90	6921,80
487,36	7028,60
487,82	6984,60
488,29	7017,00
488,75	7064,00
489,21	7138,00
489,67	7161,80
490,13	7255,20
490,60	7151,60
491,06	7296,20
491,52	7217,80
491,98	7292,20
492,44	7282,00
492,90	7452,40
493,37	7419,40
493,83	7456,60
494,29	7477,00
494,75	7510,20
495,21	7511,00
495,67	7548,40
496,14	7616,20
496,60	7589,40
497,06	7637,80
497,52	7820,60
497,98	7791,80
498,44	7752,80
498,91	7786,00
499,37	7817,00
499,83	7980,40
500,29	7854,20
500,75	7902,40
501,21	7967,40
501,67	7948,00
502,14	8087,80
502,60	8073,60
503,06	8126,40
503,52	8143,60
503,98	8174,40
504,44	8185,00
504,90	8267,40
505,36	8286,00
505,82	8270,60
506,29	8355,60
506,75	8444,00
507,21	8408,80
507,67	8493,40
508,13	8527,00
508,59	8539,00
509,05	8520,00
509,51	8507,20
509,97	8606,80
510,43	8717,20
510,89	8671,80
511,35	8809,80
511,82	8865,60
512,28	8809,80
512,74	8794,60
513,20	8862,00
513,66	8972,80
514,12	8899,40
514,58	9073,00
515,04	9162,20
515,50	9020,20
515,96	9160,00
516,42	9239,80
516,88	9249,40
517,34	9428,60
517,80	9355,20
518,26	9373,60
518,72	9616,00
519,18	9465,00
519,64	9437,20
520,10	9501,40
520,56	9536,40
521,02	9672,40
521,48	9784,40
521,94	9788,80
522,40	9820,40
522,86	9788,40
523,32	9995,20
523,78	10005,80
524,24	9973,00
524,70	10207,40
525,16	10077,00
525,62	10196,60
526,08	10225,20
526,54	10276,00
527,00	10302,00
527,46	10322,60
527,92	10397,20
528,38	10476,60
528,84	10466,80
529,30	10493,60
529,76	10498,60
530,22	10587,80
530,68	10692,00
531,14	10642,00
531,60	10850,00
532,06	10785,20
532,52	10834,40
532,98	10840,60
533,44	10981,80
533,90	10968,00
534,36	10958,40
534,82	11028,40
535,28	11070,20
535,73	11176,20
536,19	11189,00
536,65	11292,20
537,11	11277,80
537,57	11418,80
538,03	11443,00
538,49	11493,60
538,95	11671,40
539,41	11669,80
539,87	11996,60
540,33	11715,00
540,79	11915,00
541,24	11927,60
541,70	11964,80
542,16	12145,80
542,62	12239,20
543,08	12233,60
543,54	12481,40
544,00	12269,80
544,46	12463,80
544,91	12497,60
545,37	12636,80
545,83	13011,60
546,29	13065,80
546,75	12629,00
547,21	12520,40
547,67	12610,20
548,13	12569,40
548,58	12609,60
549,04	12703,00
549,50	12671,00
549,96	12917,40
550,42	12803,20
550,88	12839,80
551,33	12975,00
551,79	12930,40
552,25	13119,60
552,71	13035,80
553,17	13055,80
553,63	13116,20
554,08	13174,40
554,54	13160,80
555,00	13275,20
555,46	13283,40
555,92	13526,60
556,37	13467,80
556,83	13576,00
557,29	13522,60
557,75	13671,60
558,21	13738,60
558,66	13658,60
559,12	13809,20
559,58	13772,40
560,04	13866,60
560,50	13933,20
560,95	13958,00
561,41	14002,40
561,87	14102,60
562,33	14130,40
562,78	14110,40
563,24	14257,80
563,70	14319,60
564,16	14314,80
564,61	14437,60
565,07	14468,80
565,53	14500,40
565,99	14516,80
566,44	14677,80
566,90	14600,20
567,36	14686,60
567,82	14763,60
568,27	14858,20
568,73	14855,40
569,19	14989,40
569,65	15026,80
570,10	15088,60
570,56	15133,60
571,02	15235,20
571,47	15263,80
571,93	15241,00
572,39	15314,40
572,85	15389,60
573,30	15472,00
573,76	15451,20
574,22	15590,40
574,67	15642,40
575,13	15756,00
575,59	15723,80
576,04	15853,00
576,50	15832,60
576,96	16106,40
577,42	16030,60
577,87	15999,00
578,33	16027,00
578,79	16330,80
579,24	16263,60
579,70	16289,40
580,16	16363,20
580,61	16464,20
581,07	16448,60
581,53	16513,60
581,98	16580,20
582,44	16613,60
582,89	16619,80
583,35	16766,60
583,81	16880,60
584,26	16911,20
584,72	16923,00
585,18	16935,40
585,63	17228,20
586,09	17061,40
586,55	17157,20
587,00	17215,20
587,46	17297,20
587,91	17425,00
588,37	17359,40
588,83	17455,60
589,28	17417,00
589,74	17496,80
590,19	17628,20
590,65	17728,20
591,11	17723,40
591,56	17724,60
592,02	17872,60
592,47	17854,20
592,93	17939,80
593,39	17989,40
593,84	18082,40
594,30	18073,60
594,75	18127,40
595,21	18279,60
595,66	18266,60
596,12	18234,20
596,58	18432,60
597,03	18420,20
597,49	18511,00
597,94	18416,80
598,40	18491,40
598,85	18600,60
599,31	18804,40
599,76	18756,00
600,22	18896,80
600,67	18960,20
601,13	19072,80
601,59	19047,00
602,04	19029,60
602,50	19285,20
602,95	19143,00
603,41	19237,00
603,86	19198,80
604,32	19246,80
604,77	19428,60
605,23	19395,60
605,68	19525,00
606,14	19565,20
606,59	19560,40
607,05	19647,00
607,50	19594,00
607,96	19716,80
608,41	19829,00
608,87	19897,20
609,32	20117,80
609,78	20132,80
610,23	20268,00
610,69	20531,80
611,14	20817,00
611,60	20838,20
612,05	20924,40
612,50	20719,00
612,96	20722,40
613,41	20939,00
613,87	20748,00
614,32	20742,60
614,78	20895,60
615,23	20927,20
615,69	21035,20
616,14	21110,80
616,59	21066,00
617,05	21251,00
617,50	21198,60
617,96	21306,40
618,41	21332,80
618,87	21453,60
619,32	21531,00
619,77	21622,20
620,23	21716,40
620,68	21865,40
621,14	21869,60
621,59	21926,60
622,05	22072,20
622,50	22084,20
622,95	22185,40
623,41	22190,60
623,86	22261,20
624,32	22421,60
624,77	22313,20
625,22	22421,00
625,68	22531,40
626,13	22515,00
626,58	22653,20
627,04	22742,20
627,49	22768,60
627,95	22842,20
628,40	22949,80
628,85	22889,40
629,31	23022,80
629,76	23134,00
630,21	23192,60
630,67	23344,60
631,12	23353,60
631,57	23366,60
632,03	23430,40
632,48	23475,20
632,93	23476,60
633,39	23556,20
633,84	23614,40
634,29	23569,40
634,75	23635,00
635,20	23708,00
635,65	23785,00
636,11	23788,00
636,56	23914,40
637,01	23903,80
637,47	23956,20
637,92	24132,40
638,37	24171,40
638,83	24091,40
639,28	24130,80
639,73	24222,20
640,18	24303,20
640,64	24398,20
641,09	24493,40
641,54	24500,00
642,00	24538,80
642,45	24547,80
642,90	24610,20
643,35	24714,40
643,81	24830,40
644,26	24816,20
644,71	24874,20
645,17	24968,20
645,62	24981,60
646,07	25052,20
646,52	25126,60
646,98	25255,00
647,43	25292,80
647,88	25286,40
648,33	25331,80
648,79	25300,60
649,24	25529,20
649,69	25544,00
650,14	25872,00
650,59	25642,60
651,05	25595,60
651,50	25646,40
651,95	25749,00
652,40	25744,80
652,86	25824,00
653,31	25942,00
653,76	25972,00
654,21	26067,00
654,66	26048,20
655,12	26110,80
655,57	26097,20
656,02	26240,40
656,47	26207,20
656,92	26330,20
657,38	26407,80
657,83	26488,80
658,28	26443,40
658,73	26456,00
659,18	26496,20
659,63	26877,20
660,09	26581,40
660,54	26833,60
660,99	26880,80
661,44	26803,40
661,89	26899,80
662,34	26938,20
662,80	26875,60
663,25	27143,60
663,70	27074,40
664,15	27136,60
664,60	27234,40
665,05	27206,60
665,50	27244,20
665,96	27203,80
666,41	27247,80
666,86	27427,00
667,31	27547,20
667,76	27623,00
668,21	27521,00
668,66	27678,60
669,11	27647,60
669,56	27826,80
670,02	27702,80
670,47	27764,60
670,92	28041,00
671,37	28017,20
671,82	28117,20
672,27	28262,40
672,72	28191,40
673,17	28180,60
673,62	28282,40
674,07	28436,40
674,52	28314,60
674,98	28328,40
675,43	28339,80
675,88	28432,20
676,33	28548,40
676,78	28561,20
677,23	28568,20
677,68	28611,80
678,13	28776,00
678,58	28668,20
679,03	28801,80
679,48	28890,40
679,93	28927,00
680,38	28986,60
680,83	28984,40
681,28	28899,20
681,73	28971,20
682,18	29106,40
682,63	29161,20
683,08	29250,00
683,53	29386,60
683,98	29368,00
684,43	29453,20
684,89	29383,00
685,34	29362,80
685,79	29425,00
686,24	29454,40
686,69	29508,20
687,14	29600,40
687,59	29667,00
688,04	29698,60
688,49	29728,00
688,93	29854,40
689,38	29782,60
689,83	29784,80
690,28	29825,60
690,73	29824,00
691,18	29887,80
691,63	29872,00
692,08	29818,80
692,53	30034,40
692,98	30049,20
693,43	30162,00
693,88	30281,80
694,33	30324,60
694,78	30414,60
695,23	30777,20
695,68	30523,00
696,13	30500,80
696,58	30731,80
697,03	30506,60
697,48	30519,60
697,93	30635,00
698,38	30565,40
698,82	30696,40
699,27	30850,40
699,72	30975,60
700,17	30948,60
700,62	30992,60
701,07	31062,00
701,52	31215,00
701,97	30824,80
702,42	31094,20
702,87	30974,40
703,32	31111,60
703,76	31267,40
704,21	31337,60
704,66	31410,20
705,11	31416,20
705,56	31401,20
706,01	31321,80
706,46	31219,80
706,91	31344,00
707,36	31487,20
707,80	31608,40
708,25	31746,60
708,70	31813,40
709,15	31701,00
709,60	31668,60
710,05	31569,20
710,50	31584,80
710,94	31642,00
711,39	31785,60
711,84	31893,80
712,29	32049,20
712,74	31980,60
713,19	32035,20
713,63	31878,40
714,08	31954,40
714,53	31924,00
714,98	31965,60
715,43	31950,60
715,87	32062,00
716,32	32131,20
716,77	32203,60
717,22	32077,20
717,67	32167,40
718,12	32168,80
718,56	32213,20
719,01	32074,00
719,46	32040,80
719,91	32193,40
720,35	32289,60
720,80	32219,40
721,25	32397,80
721,70	32253,80
722,15	32216,00
722,59	32185,20
723,04	32150,20
723,49	32051,80
723,94	32189,80
724,38	32169,20
724,83	32307,00
725,28	32387,20
725,73	32363,20
726,17	32496,00
726,62	32565,60
727,07	32565,80
727,52	32338,60
727,96	32498,00
728,41	32523,20
728,86	32674,20
729,31	32733,80
729,75	32746,40
730,20	32920,60
730,65	32988,80
731,09	33152,00
731,54	33194,00
731,99	33165,40
732,44	33230,80
732,88	33186,60
733,33	33300,20
733,78	33349,60
734,22	33566,80
734,67	33726,60
735,12	33906,40
735,57	34043,80
736,01	34274,80
736,46	34072,40
736,91	34030,80
737,35	34122,60
737,80	34103,40
738,25	34125,40
738,69	34176,40
739,14	34398,20
739,59	34425,00
740,03	34506,20
740,48	34587,60
740,93	34509,20
741,37	34572,00
741,82	34563,40
742,26	34565,00
742,71	34413,80
743,16	34459,20
743,60	34427,40
744,05	34589,60
744,50	34698,40
744,94	34772,80
745,39	34814,60
745,84	34876,00
746,28	34865,00
746,73	34693,00
747,17	34583,00
747,62	34462,40
748,07	34513,20
748,51	34647,40
748,96	34623,40
749,40	34790,60
749,85	35003,00
750,30	34794,00
750,74	34802,80
751,19	34866,40
751,63	34751,80
752,08	34639,40
752,53	34624,00
752,97	34660,40
753,42	34601,60
753,86	34622,20
754,31	34849,20
754,75	34875,40
755,20	34883,00
755,64	34862,00
756,09	34791,60
756,54	34661,20
756,98	34557,00
757,43	34589,60
757,87	34483,00
758,32	34689,60
758,76	34643,80
759,21	34717,20
759,65	34807,40
760,10	34802,60
760,54	34753,80
760,99	34532,00
761,43	34548,00
761,88	34508,00
762,33	34353,80
762,77	34377,00
763,22	34678,00
763,66	34874,80
764,11	35087,20
764,55	35089,40
765,00	35155,00
765,44	35113,00
765,89	35027,00
766,33	34838,80
766,77	34739,20
767,22	34710,00
767,66	34796,80
768,11	34998,40
768,55	35264,80
769,00	35442,20
769,44	35789,60
769,89	35769,60
770,33	35850,60
770,78	35737,40
771,22	35689,00
771,67	35491,40
772,11	35530,40
772,56	35496,00
773,00	35326,60
773,44	35389,80
773,89	35315,40
774,33	35424,20
774,78	35609,20
775,22	35705,20
775,67	35944,60
776,11	36047,80
776,55	35946,40
777,00	35941,00
777,44	35812,00
777,89	35632,40
778,33	35533,60
778,77	35495,80
779,22	35484,60
779,66	35632,40
780,11	35760,00
780,55	35815,60
780,99	36023,00
781,44	36084,40
781,88	36004,00
782,33	35969,80
782,77	35707,80
783,21	35509,40
783,66	35454,80
784,10	35245,40
784,55	35090,00
784,99	35150,00
785,43	35237,40
785,88	35446,60
786,32	35477,20
786,76	35782,00
787,21	35935,20
787,65	35687,40
788,09	35604,80
788,54	35483,80
788,98	35170,40
789,42	35156,00
789,87	34941,00
790,31	34952,80
790,75	34858,60
791,20	35033,40
791,64	35271,80
792,08	35409,40
792,53	35653,80
792,97	35692,00
793,41	35898,40
793,86	35482,80
794,30	35077,20
794,74	34748,60
795,18	34600,60
795,63	34390,20
796,07	34500,60
796,51	34647,00
796,96	34990,40
797,40	35106,00
797,84	35248,40
798,28	35416,20
798,73	35340,00
799,17	35286,20
799,61	34791,60
800,06	34757,00
800,50	34381,60
800,94	34233,00
801,38	34255,60
801,83	34376,80
802,27	34523,00
802,71	34793,40
803,15	35149,20
803,60	35297,40
804,04	35308,40
804,48	35240,60
804,92	35102,20
805,37	34771,60
805,81	34465,20
806,25	34116,00
806,69	33812,20
807,13	33814,40
807,58	33863,60
808,02	34071,00
808,46	34264,00
808,90	34525,80
809,34	34811,40
809,79	34956,00
810,23	34999,60
810,67	35064,80
811,11	35029,60
811,55	34724,40
812,00	34246,60
812,44	33931,80
812,88	33817,00
813,32	33698,20
813,76	33623,00
814,21	33585,20
814,65	33858,80
815,09	34223,20
815,53	34573,40
815,97	34774,20
816,41	34814,20
816,85	34885,80
817,30	34872,20
817,74	34632,60
818,18	34410,40
818,62	33965,80
819,06	33715,60
819,50	33441,40
819,94	33394,20
820,39	33502,40
820,83	33599,20
821,27	33938,80
821,71	34095,80
822,15	34514,40
822,59	34619,60
823,03	34800,00
823,47	34869,20
823,92	34565,60
824,36	34415,80
824,80	34149,20
825,24	33927,80
825,68	33656,20
826,12	33453,80
826,56	33457,00
827,00	33586,60
827,44	33900,20
827,88	34105,20
828,32	34560,20
828,77	34593,20
829,21	34716,20
829,65	34879,40
830,09	34648,60
830,53	34528,20
830,97	34140,60
831,41	33924,80
831,85	33571,40
832,29	33451,60
832,73	33466,40
833,17	33719,00
833,61	34097,20
834,05	34474,20
834,49	34754,40
834,93	35093,40
835,37	35105,00
835,81	35007,80
836,25	34666,20
836,69	34234,60
837,13	33797,20
837,57	33617,40
838,01	33451,60
838,45	33385,20
838,89	33520,40
839,33	33746,60
839,77	34199,40
840,21	34596,00
840,65	35054,60
841,09	35390,00
841,53	35490,80
841,97	35371,80
842,41	35153,80
842,85	34905,40
843,29	34460,60
843,73	33932,00
844,17	33536,00
844,61	33292,40
845,05	33311,40
845,49	33468,00
845,93	33814,80
846,37	34326,00
846,81	34724,20
847,25	35257,80
847,69	35689,40
848,13	35778,80
848,57	35981,00
849,01	35879,40
849,45	35831,00
849,89	35617,40
850,32	35210,20
850,76	34701,20
851,20	34518,20
851,64	34067,40
852,08	33943,80
852,52	33934,00
852,96	33987,80
853,40	34196,00
853,84	34698,40
854,28	35262,80
854,72	36067,40
855,16	36234,60
855,59	36440,00
856,03	36405,80
856,47	36177,60
856,91	35674,80
857,35	35088,40
857,79	34378,00
858,23	34014,60
858,67	33945,40
859,10	33727,00
859,54	34023,80
859,98	34554,20
860,42	35182,00
860,86	35668,80
861,30	36296,00
861,74	36522,00
862,17	36542,00
862,61	36635,60
863,05	36458,00
863,49	35958,00
863,93	35751,00
864,37	35085,40
864,80	34867,40
865,24	34631,20
865,68	34509,00
866,12	34784,20
866,56	34939,60
867,00	35319,00
867,43	35664,40
867,87	36272,60
868,31	36623,80
868,75	36891,20
869,19	37072,00
869,62	36901,80
870,06	36478,60
870,50	35751,40
870,94	34848,60
871,38	34370,00
871,81	34160,40
872,25	33967,00
872,69	34250,80
873,13	34596,40
873,56	34975,80
874,00	35862,20
874,44	36409,40
874,88	36869,60
875,31	37188,80
875,75	37392,60
876,19	37248,60
876,63	37212,40
877,06	36750,80
877,50	36172,80
877,94	35695,00
878,38	35245,20
878,81	34800,00
879,25	34485,80
879,69	34444,20
880,13	34387,40
880,56	34605,00
881,00	35123,20
881,44	35817,80
881,87	36720,00
882,31	37414,80
882,75	37945,80
883,19	38232,00
883,62	38157,20
884,06	37939,60
884,50	37454,60
884,93	36720,00
885,37	36199,00
885,81	35591,60
886,24	35023,00
886,68	34662,60
887,12	34610,00
887,55	34475,80
887,99	34840,20
888,43	35274,40
888,86	35749,80
889,30	36527,20
889,74	36786,80
890,17	37302,20
890,61	37892,60
891,05	38342,40
891,48	38706,80
891,92	38747,40
892,36	38239,60
892,79	37657,00
893,23	36700,00
893,67	36147,20
894,10	35694,80
894,54	35341,00
894,97	35182,80
895,41	35055,60
895,85	35374,00
896,28	35858,60
896,72	36645,80
897,16	37416,80
897,59	37975,80
898,03	38772,60
898,46	39301,60
898,90	39574,00
899,34	39315,60
899,77	38999,60
900,21	38374,00
900,64	37886,80
901,08	37182,00
901,51	36337,40
901,95	35783,00
902,39	35535,60
902,82	35241,40
903,26	35231,20
903,69	35675,80
904,13	35862,00
904,56	36262,80
905,00	36605,40
905,43	37113,00
905,87	37431,80
906,31	38054,00
906,74	38291,80
907,18	38789,40
907,61	39000,80
908,05	38861,40
908,48	38620,60
908,92	38053,40
909,35	37475,80
909,79	36717,60
910,22	36007,20
910,66	35689,80
911,09	35482,20
911,53	35619,80
911,96	35943,80
912,40	36570,00
912,83	37294,80
913,27	38118,40
913,70	38863,00
914,14	39638,80
914,57	40199,20
915,01	40157,60
915,44	39739,40
915,88	39019,80
916,31	37908,40
916,75	36990,60
917,18	36438,80
917,62	36037,40
918,05	36048,60
918,49	36238,40
918,92	36428,20
919,35	36703,40
919,79	37341,60
920,22	37633,00
920,66	38032,00
921,09	38658,40
921,53	39205,00
921,96	39769,00
922,40	39945,60
922,83	39998,60
923,26	39892,20
923,70	39734,80
924,13	39348,00
924,57	38686,40
925,00	38013,40
925,44	37362,20
925,87	36657,40
926,30	35972,40
926,74	35388,20
927,17	35545,40
927,61	35597,00
928,04	36181,80
928,47	36534,40
928,91	37047,00
929,34	37735,20
929,77	38387,20
930,21	38815,20
930,64	38917,20
931,08	38586,40
931,51	38261,80
931,94	37451,20
932,38	36844,60
932,81	36266,80
933,24	35323,00
933,68	34346,40
934,11	33709,60
934,54	33272,80
934,98	33107,00
935,41	32960,00
935,84	32905,40
936,28	33075,40
936,71	33144,80
937,14	33605,60
937,58	33880,00
938,01	33858,20
938,44	33751,20
938,88	33458,20
939,31	32739,20
939,74	31862,40
940,18	31035,40
940,61	30155,60
941,04	29403,00
941,48	28494,80
941,91	28076,80
942,34	27674,60
942,77	27476,80
943,21	27590,20
943,64	27748,60
944,07	28033,60
944,51	28353,20
944,94	28729,40
945,37	29134,80
945,80	29402,80
946,24	29868,80
946,67	30317,00
947,10	30839,80
947,53	30949,20
947,97	31134,60
948,40	31050,80
948,83	30685,00
949,26	30333,00
949,70	29946,60
950,13	29685,00
950,56	29235,60
950,99	28916,00
951,43	28835,00
951,86	28879,80
952,29	29322,20
952,72	30042,60
953,15	30794,80
953,59	31774,80
954,02	32515,60
954,45	33174,60
954,88	33648,60
955,31	33854,00
955,75	33953,00
956,18	33699,00
956,61	33152,60
957,04	32629,20
957,47	32275,20
957,91	31546,40
958,34	31159,60
958,77	30962,40
959,20	30756,00
959,63	30719,20
960,06	30640,40
960,50	30830,20
960,93	31275,00
961,36	31811,60
961,79	32295,60
962,22	32829,00
962,65	33439,80
963,09	33958,40
963,52	34512,40
963,95	34718,60
964,38	34684,80
964,81	34561,80
965,24	34047,00
965,67	33496,60
966,10	32720,80
966,54	31980,40
966,97	31413,00
967,40	30787,20
967,83	30655,40
968,26	30622,80
968,69	30809,40
969,12	30658,40
969,55	30622,80
969,98	30695,40
970,42	30794,80
970,85	31138,00
971,28	31424,40
971,71	31706,00
972,14	32278,20
972,57	32725,60
973,00	33153,60
973,43	33351,20
973,86	33347,60
974,29	32985,20
974,72	32430,00
975,15	31841,80
975,58	31133,00
976,01	30625,40
976,45	30033,80
976,88	29724,20
977,31	29424,20
977,74	29386,20
978,17	29316,60
978,60	29567,00
979,03	29738,80
979,46	30190,60
979,89	30624,80
980,32	30957,60
980,75	31247,20
981,18	31629,80
981,61	32058,20
982,04	32116,40
982,47	32103,80
982,90	32076,60
983,33	32072,20
983,76	31783,00
984,19	31644,80
984,62	31428,80
985,05	30766,20
985,48	30297,20
985,91	29767,80
986,34	29418,00
986,77	28763,40
987,20	28302,60
987,63	28190,60
988,06	27982,40
988,49	28074,40
988,92	28200,80
989,35	28451,80
989,78	28704,60
990,20	28976,60
990,63	29447,20
991,06	29815,80
991,49	30079,40
991,92	30473,20
992,35	30401,80
992,78	30216,20
993,21	30074,80
993,64	29691,20
994,07	29341,60
994,50	28796,40
994,93	28370,00
995,36	27897,20
995,79	27443,00
996,21	27061,40
996,64	26896,00
997,07	26596,80
997,50	26557,60
997,93	26560,80
998,36	26571,20
998,79	26691,80
999,22	26891,80
999,65	27136,60
1000,07	27232,40
1000,50	27707,00
1000,93	27954,20
1001,36	28053,80
1001,79	28103,80
1002,22	28023,60
1002,65	27722,60
1003,08	27331,00
1003,50	26810,80
1003,93	26310,80
1004,36	25768,40
1004,79	25238,40
1005,22	24893,00
1005,65	24536,80
1006,07	24310,00
1006,50	24010,00
1006,93	24021,20
1007,36	23981,20
1007,79	23976,80
1008,22	23888,00
1008,64	24037,40
1009,07	24065,40
1009,50	24391,00
1009,93	24329,00
1010,36	24314,40
1010,78	24404,40
1011,21	24470,80
1011,64	24505,00
1012,07	24401,80
1012,50	24382,60
1012,92	24228,80
1013,35	23988,00
1013,78	23677,80
1014,21	23115,60
1014,64	22737,80
1015,06	22273,60
1015,49	22042,80
1015,92	21787,80
1016,35	21715,40
1016,77	21648,20
1017,20	21786,20
1017,63	21954,80
1018,06	23154,60
1018,48	22436,20
1018,91	22526,80
1019,34	22960,80
1019,77	23087,80
1020,19	23203,40
1020,62	23226,20
1021,05	23488,80
1021,47	23616,40
1021,90	23637,00
1022,33	23820,20
1022,76	23845,40
1023,18	23964,80
1023,61	23739,20
1024,04	23434,40
1024,46	23099,20
1024,89	22881,00
1025,32	22552,20
1025,75	22372,40
1026,17	22139,40
1026,60	22034,40
1027,03	22124,40
1027,45	21875,20
1027,88	21836,60
1028,31	21811,60
1028,73	22018,40
1029,16	22091,00
1029,59	22325,60
1030,01	22397,40
1030,44	22479,40
1030,87	22521,40
1031,29	22527,20
1031,72	22283,60
1032,15	22209,20
1032,57	22079,20
1033,00	21807,40
1033,42	21562,60
1033,85	21188,80
1034,28	20841,20
1034,70	20438,60
1035,13	20213,20
1035,56	19818,60
1035,98	19674,60
1036,41	19298,60
1036,83	19084,80
1037,26	18863,80
1037,69	18715,40
1038,11	18698,80
1038,54	18678,20
1038,96	18641,60
1039,39	18634,00
1039,82	18732,40
1040,24	18685,20
1040,67	18725,40
1041,09	18713,00
1041,52	18615,60
1041,95	18665,00
1042,37	18583,80
1042,80	18291,40
1043,22	18138,20
1043,65	17914,40
1044,07	17654,60
1044,50	17364,00
1044,92	17100,40
1045,35	16813,00
1045,78	16569,00
1046,20	16377,80
1046,63	16184,60
1047,05	15947,80
1047,48	15788,60
1047,90	15705,40
1048,33	15482,80
1048,75	15410,00
1049,18	15387,20
1049,60	15327,80
1050,03	15240,80
1050,45	15194,40
1050,88	15124,80
1051,30	15201,80
1051,73	15138,00
1052,15	15012,60
1052,58	14901,00
1053,00	14908,40
1053,43	14733,00
1053,85	14676,40
1054,28	14524,40
1054,70	14485,80
1055,13	14233,00
1055,55	14140,00
1055,98	13933,80
1056,40	13887,00
1056,83	13651,40
1057,25	13505,60
1057,68	13279,40
1058,10	13307,00
1058,52	12873,40
1058,95	12806,20
1059,37	12637,80
1059,80	12472,40
1060,22	12356,20
1060,65	12253,80
1061,07	12142,40
1061,50	12021,00
1061,92	11946,80
1062,34	11885,60
1062,77	11872,40
1063,19	11764,60
1063,62	11701,20
1064,04	11621,80
1064,46	11653,60
1064,89	11617,80
1065,31	11506,80
1065,74	11419,00
1066,16	11350,00
1066,58	11368,20
1067,01	11232,20
1067,43	11114,20
1067,86	11031,80
1068,28	10871,60
1068,70	10858,80
1069,13	10626,20
1069,55	10525,60
1069,97	10300,00
1070,40	10333,60
1070,82	10288,80
1071,25	10149,00
1071,67	9995,00
1072,09	9952,20
1072,52	9840,60
1072,94	9764,80
1073,36	9738,60
1073,79	9757,20
1074,21	9636,00
1074,63	9587,40
1075,06	9545,40
1075,48	9561,60
1075,90	9508,40
1076,33	9470,20
1076,75	9428,80
1077,17	9436,40
1077,59	9421,00
1078,02	9328,00
1078,44	9331,40
1078,86	9298,80
1079,29	9039,00
1079,71	9023,00
1080,13	8890,60
1080,56	8790,80
1080,98	8716,60
1081,40	8604,00
1081,82	8505,40
1082,25	8489,40
1082,67	8379,60
1083,09	8326,80
1083,51	8249,80
1083,94	8185,80
1084,36	8188,80
1084,78	8119,60
1085,21	8034,40
1085,63	8109,00
1086,05	7963,40
1086,47	7935,60
1086,89	7992,40
1087,32	7825,60
1087,74	7904,40
1088,16	9780,00
1088,58	7850,20
1089,01	7784,80
1089,43	7739,80
1089,85	7686,80
1090,27	7744,40
1090,69	7578,40
1091,12	7488,40
1091,54	7389,20
1091,96	7338,40
1092,38	7231,80
1092,80	7180,60
1093,23	7092,20
1093,65	7024,00
1094,07	6946,40
1094,49	6895,80
1094,91	6831,80
1095,34	6790,80
1095,76	6737,00
1096,18	6709,00
1096,60	6684,00
1097,02	6583,20
1097,44	6601,60
1097,87	6536,00
1098,29	6582,20
1098,71	6557,40
1099,13	6504,40
1099,55	6431,80
1099,97	6418,60
1100,39	6362,20
1100,82	6292,80
1101,24	6199,00
1101,66	6149,60
1102,08	6006,60
1102,50	5943,40
1102,92	5899,80
1103,34	5854,00
1103,76	5829,00
1104,19	6261,80
1104,61	5782,40
1105,03	5623,20
1105,45	5702,60
1105,87	5724,00
1106,29	5626,60
1106,71	5630,60
1107,13	5517,80
1107,55	5523,60
1107,97	5597,20
1108,39	5380,80
1108,82	5435,80
1109,24	5309,40
1109,66	5271,60
1110,08	5112,40
1110,50	5105,60
1110,92	5046,60
1111,34	5040,00
1111,76	4987,80
1112,18	4979,60
1112,60	4951,80
1113,02	4937,00
1113,44	4854,20
1113,86	4740,40
1114,28	4692,20
1114,70	4636,80
1115,12	4538,00
1115,54	4539,60
1115,96	4454,40
1116,38	4295,80
1116,80	4145,20
1117,22	3987,60
1117,64	3888,00
1118,06	2158,80
1118,48	2198,60
1118,90	2199,80
1119,32	2197,40
>>>>>End Processed Spectral Data<<<<<
