SpectraSuite Data File
++++++++++++++++++++++++++++++++++++
Date: Wed Oct 15 10:10:24 EEST 2014
User: OO Maya
Dark Spectrum Present: No
Reference Spectrum Present: No
Number of Sampled Component Spectra: 1
Spectrometers: MAYP11278
Integration Time (usec): 500000 (MAYP11278)
Spectra Averaged: 5 (MAYP11278)
Boxcar Smoothing: 0 (MAYP11278)
Correct for Electrical Dark: No (MAYP11278)
Strobe/Lamp Enabled: No (MAYP11278)
Correct for Detector Non-linearity: No (MAYP11278)
Correct for Stray Light: No (MAYP11278)
Number of Pixels in Processed Spectrum: 2068
>>>>>Begin Processed Spectral Data<<<<<
188,14	2312,40
188,62	2227,60
189,09	2198,00
189,57	2197,40
190,05	3008,40
190,53	3077,60
191,01	3102,00
191,49	3132,00
191,97	3194,80
192,44	3157,00
192,92	3104,80
193,40	3102,00
193,88	3156,60
194,36	3138,00
194,84	3150,80
195,31	3131,80
195,79	3190,00
196,27	3136,20
196,75	3145,80
197,23	3286,00
197,70	3137,40
198,18	3119,00
198,66	3134,20
199,14	3106,00
199,62	3164,00
200,09	3205,80
200,57	3136,80
201,05	3132,80
201,53	3190,00
202,01	3174,80
202,48	3176,00
202,96	3103,00
203,44	3166,00
203,92	3112,60
204,40	3198,00
204,87	3221,60
205,35	3129,80
205,83	3134,00
206,31	3238,00
206,78	3151,00
207,26	3163,00
207,74	3281,20
208,22	3161,60
208,69	3201,80
209,17	3130,40
209,65	3207,00
210,13	3183,40
210,60	3161,00
211,08	3157,80
211,56	3195,80
212,04	3170,60
212,51	3130,80
212,99	3276,80
213,47	3180,80
213,95	3138,00
214,42	3259,80
214,90	3186,60
215,38	3238,40
215,85	3180,60
216,33	3199,00
216,81	3198,00
217,29	3181,40
217,76	3127,20
218,24	3143,60
218,72	3229,00
219,19	3096,20
219,67	3114,40
220,15	3142,40
220,62	3169,80
221,10	3290,00
221,58	3140,80
222,05	3214,00
222,53	3139,80
223,01	3212,00
223,49	3163,40
223,96	3216,40
224,44	3172,00
224,92	3148,20
225,39	3127,60
225,87	3178,80
226,35	3134,60
226,82	3163,40
227,30	3229,80
227,77	3168,40
228,25	3189,60
228,73	3213,60
229,20	3201,00
229,68	3188,00
230,16	3177,40
230,63	3164,00
231,11	3220,60
231,59	3241,40
232,06	3168,60
232,54	3185,80
233,02	3133,60
233,49	3183,60
233,97	3189,60
234,44	3360,40
234,92	3187,20
235,40	3153,00
235,87	3137,40
236,35	3119,40
236,82	3208,80
237,30	3294,60
237,78	3141,20
238,25	3188,60
238,73	3191,00
239,20	3165,80
239,68	3169,60
240,16	3114,80
240,63	3214,00
241,11	3245,40
241,58	3191,20
242,06	3162,20
242,53	3251,40
243,01	3254,20
243,49	3135,40
243,96	3152,40
244,44	3234,40
244,91	3264,80
245,39	3174,20
245,86	3251,00
246,34	5660,80
246,82	3095,00
247,29	3197,20
247,77	3186,00
248,24	3215,20
248,72	3197,60
249,19	3120,40
249,67	3211,80
250,14	3228,00
250,62	3204,60
251,09	3258,80
251,57	3184,80
252,04	3293,00
252,52	3261,20
253,00	3157,80
253,47	3245,00
253,95	3193,20
254,42	3180,40
254,90	3199,20
255,37	3203,60
255,85	3232,80
256,32	3165,80
256,80	3211,80
257,27	3213,20
257,75	3233,20
258,22	3360,40
258,70	3210,00
259,17	3181,60
259,65	3196,00
260,12	3231,20
260,59	3277,80
261,07	3188,80
261,54	3185,00
262,02	3251,00
262,49	3150,00
262,97	3196,60
263,44	3189,40
263,92	3131,40
264,39	3241,60
264,87	3242,00
265,34	3179,60
265,82	3190,00
266,29	3212,80
266,76	3232,00
267,24	3179,00
267,71	3195,80
268,19	3208,60
268,66	3231,00
269,14	3147,80
269,61	3158,40
270,09	3181,00
270,56	3229,00
271,03	3251,80
271,51	3181,40
271,98	3212,20
272,46	3126,40
272,93	3146,00
273,40	3117,40
273,88	3219,20
274,35	3407,60
274,83	3231,80
275,30	3242,00
275,78	3174,60
276,25	3181,80
276,72	3222,80
277,20	3243,60
277,67	3150,80
278,14	3191,60
278,62	3143,80
279,09	3419,00
279,57	3192,20
280,04	3174,00
280,51	3395,60
280,99	3261,60
281,46	3370,80
281,93	3175,00
282,41	3284,00
282,88	3207,00
283,36	3214,40
283,83	3220,00
284,30	3189,60
284,78	3157,40
285,25	3247,80
285,72	3203,20
286,20	3206,60
286,67	3228,60
287,14	3155,00
287,62	3241,40
288,09	3278,40
288,56	3203,00
289,04	3268,20
289,51	3124,40
289,98	3293,20
290,46	3190,60
290,93	3232,40
291,40	3190,00
291,88	3246,40
292,35	3317,40
292,82	3175,00
293,29	3266,40
293,77	3192,00
294,24	3255,80
294,71	3244,40
295,19	3181,20
295,66	3230,20
296,13	3239,20
296,61	3320,20
297,08	3302,40
297,55	3264,40
298,02	3239,80
298,50	3242,00
298,97	3194,60
299,44	3311,20
299,91	3205,80
300,39	3245,80
300,86	3186,00
301,33	3263,20
301,81	3283,00
302,28	3258,40
302,75	3174,80
303,22	3293,00
303,70	3266,80
304,17	3197,40
304,64	3210,40
305,11	3184,40
305,58	3246,00
306,06	3247,20
306,53	3251,20
307,00	3265,80
307,47	3206,20
307,95	3210,00
308,42	3232,00
308,89	3211,40
309,36	3274,40
309,83	3275,80
310,31	3265,00
310,78	3249,80
311,25	3251,00
311,72	3224,60
312,20	3282,20
312,67	3244,40
313,14	3340,40
313,61	3211,60
314,08	3207,80
314,56	3239,80
315,03	3220,40
315,50	3188,60
315,97	3286,60
316,44	3261,60
316,91	3256,80
317,39	3272,00
317,86	3256,60
318,33	3400,00
318,80	3252,20
319,27	3244,20
319,74	3185,20
320,22	3278,00
320,69	3357,60
321,16	3303,20
321,63	3268,20
322,10	3194,20
322,57	3212,40
323,04	3370,00
323,52	3228,00
323,99	3389,20
324,46	3177,60
324,93	3270,20
325,40	3259,60
325,87	3255,60
326,34	3270,60
326,82	3269,80
327,29	3326,00
327,76	3316,40
328,23	3316,00
328,70	3302,80
329,17	3273,80
329,64	3258,20
330,11	3268,00
330,58	3262,40
331,05	3317,40
331,53	3287,60
332,00	3382,20
332,47	3263,40
332,94	3400,40
333,41	3339,80
333,88	3351,00
334,35	3396,40
334,82	3334,60
335,29	3342,60
335,76	3527,60
336,23	3271,40
336,70	3331,80
337,18	3294,60
337,65	3350,20
338,12	3296,40
338,59	3311,40
339,06	3387,40
339,53	3355,40
340,00	3263,20
340,47	3258,00
340,94	3268,40
341,41	3332,60
341,88	3376,60
342,35	3264,00
342,82	3326,00
343,29	3339,80
343,76	3329,40
344,23	3274,40
344,70	3279,20
345,17	3261,00
345,64	3294,40
346,11	3324,20
346,58	3252,80
347,05	3254,00
347,52	3372,60
347,99	3252,80
348,46	3356,20
348,93	3294,00
349,40	3217,40
349,87	3284,20
350,34	3335,40
350,81	3287,00
351,28	3248,00
351,75	3301,20
352,22	3395,60
352,69	3317,20
353,16	3274,00
353,63	3292,80
354,10	3341,60
354,57	3291,80
355,04	3322,60
355,51	3330,80
355,98	3375,80
356,45	3268,40
356,92	3391,40
357,39	3266,00
357,86	3434,40
358,33	3356,40
358,80	3255,20
359,27	3269,20
359,74	3279,40
360,21	3290,20
360,68	3368,60
361,14	3389,80
361,61	3311,00
362,08	3311,40
362,55	3324,40
363,02	3310,40
363,49	3323,20
363,96	3450,20
364,43	3375,80
364,90	3301,60
365,37	3365,60
365,84	3330,40
366,31	3292,20
366,77	3370,80
367,24	3352,00
367,71	4240,00
368,18	3273,60
368,65	3303,60
369,12	3413,80
369,59	3290,20
370,06	3400,40
370,53	3376,20
370,99	3344,80
371,46	4385,20
371,93	3370,40
372,40	3323,20
372,87	3304,20
373,34	3368,00
373,81	3394,00
374,27	3324,60
374,74	3356,40
375,21	3421,60
375,68	3319,60
376,15	3495,20
376,62	3384,20
377,09	3356,00
377,55	3345,40
378,02	3431,20
378,49	3427,60
378,96	3424,00
379,43	3424,60
379,90	3417,40
380,36	3476,00
380,83	3527,20
381,30	3461,00
381,77	3523,60
382,24	3544,40
382,71	3407,00
383,17	3462,20
383,64	3476,60
384,11	3520,60
384,58	3498,80
385,05	3776,00
385,51	3481,60
385,98	3456,00
386,45	3495,60
386,92	3595,60
387,39	3466,80
387,85	3454,00
388,32	3581,40
388,79	3529,60
389,26	3585,40
389,72	3487,80
390,19	3558,80
390,66	3537,00
391,13	3568,00
391,59	3577,60
392,06	3557,60
392,53	3595,40
393,00	3547,00
393,46	3566,60
393,93	3723,40
394,40	3592,40
394,87	3672,60
395,33	3563,80
395,80	3647,80
396,27	3872,00
396,74	3556,20
397,20	3660,40
397,67	3678,40
398,14	3591,20
398,61	3646,60
399,07	3650,80
399,54	3627,20
400,01	3754,40
400,47	3633,00
400,94	3693,80
401,41	3691,40
401,88	3740,60
402,34	3728,20
402,81	3752,40
403,28	3704,00
403,74	3863,60
404,21	3820,60
404,68	3980,80
405,14	3956,40
405,61	3870,80
406,08	3745,60
406,54	3826,40
407,01	3825,60
407,48	3936,00
407,95	3837,00
408,41	3849,80
408,88	3881,60
409,35	3792,00
409,81	3906,00
410,28	3817,20
410,74	3939,80
411,21	3835,20
411,68	3965,40
412,14	3877,00
412,61	3812,60
413,08	3950,40
413,54	3906,60
414,01	3945,40
414,48	3998,00
414,94	4049,00
415,41	3971,00
415,88	4062,80
416,34	3995,20
416,81	4008,80
417,27	4103,60
417,74	4051,40
418,21	4011,00
418,67	4040,80
419,14	4056,20
419,60	4115,20
420,07	4015,60
420,54	4118,80
421,00	4032,00
421,47	4116,20
421,93	4094,60
422,40	4141,60
422,87	4106,20
423,33	4165,80
423,80	4185,20
424,26	4237,20
424,73	4189,80
425,19	4256,00
425,66	4229,20
426,13	4318,20
426,59	4233,60
427,06	4323,40
427,52	4303,00
427,99	4335,00
428,45	4247,00
428,92	4365,80
429,38	4370,20
429,85	4359,40
430,32	4375,80
430,78	4570,00
431,25	4295,20
431,71	4411,60
432,18	4506,80
432,64	4496,80
433,11	4444,20
433,57	4461,80
434,04	4521,20
434,50	4613,20
434,97	4737,80
435,43	4723,40
435,90	4977,80
436,36	4829,80
436,83	4581,20
437,29	4667,20
437,76	4630,60
438,22	4648,60
438,69	4621,80
439,15	4666,60
439,62	4939,80
440,08	4715,40
440,55	4754,00
441,01	4814,80
441,48	4699,00
441,94	4754,80
442,41	4910,20
442,87	4736,00
443,34	4846,00
443,80	4841,60
444,27	4808,20
444,73	4965,00
445,20	4920,20
445,66	4888,60
446,12	4918,60
446,59	4965,00
447,05	4930,20
447,52	4966,20
447,98	4951,00
448,45	4949,60
448,91	5056,80
449,38	5046,00
449,84	5033,60
450,30	5030,00
450,77	5040,00
451,23	5097,80
451,70	5138,60
452,16	5192,40
452,63	5130,00
453,09	5244,60
453,55	5226,80
454,02	5237,60
454,48	5257,40
454,95	5286,20
455,41	5287,80
455,87	5352,60
456,34	5358,80
456,80	5345,60
457,27	5439,80
457,73	5416,20
458,19	5413,20
458,66	5383,60
459,12	5468,00
459,58	5480,20
460,05	5497,60
460,51	5504,00
460,98	5528,80
461,44	5652,20
461,90	5652,20
462,37	5582,80
462,83	5555,20
463,29	5717,60
463,76	5647,80
464,22	5709,20
464,68	5718,40
465,15	5716,40
465,61	5754,20
466,07	5836,60
466,54	5822,40
467,00	5846,80
467,46	5903,00
467,93	5859,00
468,39	5927,20
468,85	5988,80
469,32	5966,00
469,78	5948,20
470,24	6041,80
470,71	6045,00
471,17	6039,60
471,63	6082,00
472,10	6086,60
472,56	6100,40
473,02	6164,40
473,48	6256,00
473,95	6212,60
474,41	6207,00
474,87	6266,40
475,34	6245,80
475,80	6343,00
476,26	6355,80
476,72	6425,60
477,19	6390,00
477,65	6425,20
478,11	6526,60
478,58	6496,60
479,04	6558,00
479,50	6495,60
479,96	6654,40
480,43	6579,80
480,89	6655,20
481,35	6629,80
481,81	6685,60
482,28	6757,60
482,74	6709,60
483,20	6732,60
483,66	6761,60
484,13	6841,40
484,59	6975,80
485,05	6919,40
485,51	6972,60
485,97	6905,20
486,44	7047,80
486,90	6981,00
487,36	7088,20
487,82	7070,40
488,29	7097,80
488,75	7137,60
489,21	7210,80
489,67	7248,40
490,13	7358,40
490,60	7261,00
491,06	7334,20
491,52	7303,80
491,98	7356,80
492,44	7328,80
492,90	7509,80
493,37	7515,00
493,83	7515,00
494,29	7491,00
494,75	7560,00
495,21	7542,60
495,67	7595,00
496,14	7661,20
496,60	7707,00
497,06	7766,60
497,52	7870,60
497,98	7861,00
498,44	7796,20
498,91	7855,40
499,37	7822,60
499,83	8076,60
500,29	7953,40
500,75	7965,40
501,21	8021,60
501,67	8051,40
502,14	8152,20
502,60	8125,20
503,06	8173,60
503,52	8182,40
503,98	8287,80
504,44	8268,80
504,90	8339,40
505,36	8377,00
505,82	8317,20
506,29	8408,00
506,75	8485,60
507,21	8503,00
507,67	8582,80
508,13	8590,20
508,59	8556,20
509,05	8619,40
509,51	8614,60
509,97	8714,60
510,43	8752,20
510,89	8763,40
511,35	8921,00
511,82	8921,40
512,28	8859,60
512,74	8858,80
513,20	8949,20
513,66	9024,00
514,12	8960,40
514,58	9157,40
515,04	9246,20
515,50	9125,60
515,96	9254,40
516,42	9337,40
516,88	9379,80
517,34	9503,20
517,80	9461,20
518,26	9462,80
518,72	9680,80
519,18	9511,00
519,64	9534,20
520,10	9612,20
520,56	9628,80
521,02	9765,80
521,48	9811,00
521,94	9897,20
522,40	9898,60
522,86	9875,40
523,32	10062,20
523,78	10052,60
524,24	10045,40
524,70	10245,60
525,16	10244,00
525,62	10246,60
526,08	10337,00
526,54	10327,20
527,00	10362,00
527,46	10422,00
527,92	10477,20
528,38	10573,40
528,84	10574,00
529,30	10555,20
529,76	10584,40
530,22	10718,20
530,68	10774,80
531,14	10756,60
531,60	10961,80
532,06	10879,60
532,52	10929,20
532,98	11018,20
533,44	11092,00
533,90	11052,40
534,36	11077,00
534,82	11125,80
535,28	11186,80
535,73	11297,80
536,19	11287,60
536,65	11395,00
537,11	11329,20
537,57	11526,80
538,03	11544,20
538,49	11600,60
538,95	11784,40
539,41	11717,80
539,87	12112,20
540,33	11826,60
540,79	12056,60
541,24	12038,00
541,70	12139,00
542,16	12302,20
542,62	12341,40
543,08	12413,00
543,54	12607,60
544,00	12384,80
544,46	12679,80
544,91	12641,20
545,37	12849,00
545,83	13252,00
546,29	13221,60
546,75	12761,20
547,21	12640,60
547,67	12672,20
548,13	12716,80
548,58	12721,80
549,04	12797,00
549,50	12780,60
549,96	12994,60
550,42	12938,20
550,88	12971,60
551,33	13030,20
551,79	13120,00
552,25	13263,20
552,71	13189,20
553,17	13184,20
553,63	13280,80
554,08	13288,60
554,54	13326,60
555,00	13429,20
555,46	13479,00
555,92	13614,60
556,37	13587,60
556,83	13699,60
557,29	13573,80
557,75	13745,40
558,21	13904,80
558,66	13812,60
559,12	13881,00
559,58	13896,20
560,04	13935,80
560,50	14042,00
560,95	14070,60
561,41	14145,80
561,87	14227,80
562,33	14253,00
562,78	14305,80
563,24	14410,60
563,70	14478,80
564,16	14468,60
564,61	14544,80
565,07	14650,40
565,53	14618,80
565,99	14729,40
566,44	14901,00
566,90	14839,00
567,36	14859,60
567,82	14954,40
568,27	15076,20
568,73	15095,60
569,19	15130,20
569,65	15189,60
570,10	15216,60
570,56	15271,60
571,02	15373,40
571,47	15435,80
571,93	15419,60
572,39	15565,80
572,85	15636,20
573,30	15617,40
573,76	15702,80
574,22	15734,20
574,67	15973,20
575,13	15875,60
575,59	15902,40
576,04	16048,20
576,50	16039,00
576,96	16284,80
577,42	16240,20
577,87	16262,80
578,33	16271,40
578,79	16524,00
579,24	16519,20
579,70	16538,60
580,16	16629,60
580,61	16667,20
581,07	16706,00
581,53	16707,00
581,98	16819,80
582,44	16867,20
582,89	16888,80
583,35	17054,00
583,81	17090,40
584,26	17128,20
584,72	17200,20
585,18	17196,80
585,63	17472,40
586,09	17408,80
586,55	17396,20
587,00	17501,00
587,46	17578,80
587,91	17688,20
588,37	17602,60
588,83	17693,60
589,28	17697,00
589,74	17755,00
590,19	17863,20
590,65	18006,60
591,11	18000,20
591,56	17941,40
592,02	18217,20
592,47	18175,80
592,93	18275,20
593,39	18279,60
593,84	18455,60
594,30	18430,20
594,75	18423,80
595,21	18569,80
595,66	18527,20
596,12	18497,80
596,58	18769,00
597,03	18724,80
597,49	18812,40
597,94	18800,60
598,40	18811,00
598,85	18947,00
599,31	19177,40
599,76	19092,00
600,22	19209,60
600,67	19261,00
601,13	19334,20
601,59	19384,40
602,04	19318,40
602,50	19648,40
602,95	19482,00
603,41	19590,80
603,86	19582,20
604,32	19647,60
604,77	19769,00
605,23	19689,00
605,68	19873,40
606,14	19927,20
606,59	19829,40
607,05	20011,40
607,50	20035,60
607,96	20111,60
608,41	20267,40
608,87	20355,60
609,32	20563,60
609,78	20518,40
610,23	20718,80
610,69	21076,20
611,14	21354,40
611,60	21331,20
612,05	21366,20
612,50	21209,40
612,96	21104,20
613,41	21389,20
613,87	21232,20
614,32	21248,00
614,78	21370,20
615,23	21352,20
615,69	21486,20
616,14	21541,60
616,59	21549,00
617,05	21719,20
617,50	21687,20
617,96	21837,80
618,41	21792,80
618,87	21961,20
619,32	21995,60
619,77	22105,80
620,23	22213,40
620,68	22350,00
621,14	22425,40
621,59	22431,40
622,05	22583,60
622,50	22616,00
622,95	22739,80
623,41	22697,80
623,86	22759,20
624,32	22946,60
624,77	22901,00
625,22	22972,00
625,68	23143,20
626,13	23083,60
626,58	23245,00
627,04	23319,20
627,49	23242,60
627,95	23508,40
628,40	23529,20
628,85	23518,00
629,31	23636,40
629,76	23685,00
630,21	23795,60
630,67	23911,80
631,12	23883,60
631,57	24041,60
632,03	24037,20
632,48	24067,60
632,93	24088,60
633,39	24136,80
633,84	24210,00
634,29	24242,40
634,75	24300,60
635,20	24366,60
635,65	24417,60
636,11	24452,40
636,56	24512,40
637,01	24596,40
637,47	24691,60
637,92	24720,80
638,37	24775,40
638,83	24772,60
639,28	24775,40
639,73	24940,00
640,18	24971,20
640,64	25025,00
641,09	25186,40
641,54	25202,80
642,00	25236,40
642,45	25312,80
642,90	25280,40
643,35	25395,40
643,81	25498,20
644,26	25582,20
644,71	25521,40
645,17	25755,20
645,62	25664,40
646,07	25783,20
646,52	25864,80
646,98	25973,80
647,43	25997,80
647,88	26054,20
648,33	26109,20
648,79	26093,80
649,24	26224,60
649,69	26252,60
650,14	26642,80
650,59	26368,60
651,05	26416,20
651,50	26495,20
651,95	26573,40
652,40	26545,20
652,86	26695,80
653,31	26674,00
653,76	26839,20
654,21	26897,80
654,66	26936,60
655,12	26905,20
655,57	26936,00
656,02	27043,60
656,47	27142,60
656,92	27207,60
657,38	27313,80
657,83	27374,80
658,28	27327,40
658,73	27349,00
659,18	27420,20
659,63	27774,00
660,09	27521,80
660,54	27746,80
660,99	27790,60
661,44	27772,60
661,89	27716,00
662,34	27785,60
662,80	27795,20
663,25	27933,00
663,70	28057,60
664,15	28082,40
664,60	28136,00
665,05	28123,40
665,50	28260,20
665,96	28104,60
666,41	28256,60
666,86	28345,00
667,31	28488,20
667,76	28576,60
668,21	28511,60
668,66	28618,40
669,11	28669,20
669,56	28761,60
670,02	28689,00
670,47	28770,40
670,92	28986,60
671,37	29048,40
671,82	29141,40
672,27	29156,40
672,72	29173,00
673,17	29192,40
673,62	29328,80
674,07	29418,40
674,52	29265,00
674,98	29296,40
675,43	29351,20
675,88	29491,40
676,33	29561,40
676,78	29622,20
677,23	29635,40
677,68	29598,20
678,13	29844,20
678,58	29715,60
679,03	29830,80
679,48	29927,60
679,93	29904,00
680,38	30051,00
680,83	30051,80
681,28	30037,80
681,73	29993,80
682,18	30209,40
682,63	30270,40
683,08	30407,00
683,53	30429,40
683,98	30501,80
684,43	30594,80
684,89	30572,20
685,34	30463,20
685,79	30547,80
686,24	30624,40
686,69	30668,60
687,14	30755,40
687,59	30816,00
688,04	30953,00
688,49	30974,80
688,93	31186,80
689,38	31006,00
689,83	30986,40
690,28	30992,20
690,73	31094,20
691,18	31074,40
691,63	31080,80
692,08	31103,40
692,53	31131,00
692,98	31213,20
693,43	31321,20
693,88	31494,60
694,33	31582,20
694,78	31616,80
695,23	31954,00
695,68	31786,20
696,13	31778,80
696,58	31927,80
697,03	31812,00
697,48	31828,40
697,93	31854,20
698,38	31846,80
698,82	31989,20
699,27	32138,80
699,72	32171,00
700,17	32267,80
700,62	32320,60
701,07	32377,40
701,52	32449,60
701,97	32228,40
702,42	32313,80
702,87	32236,60
703,32	32480,80
703,76	32567,80
704,21	32614,60
704,66	32689,60
705,11	32779,60
705,56	32687,40
706,01	32636,60
706,46	32577,60
706,91	32684,80
707,36	32799,00
707,80	32889,80
708,25	33122,40
708,70	33186,20
709,15	33156,80
709,60	33076,00
710,05	32934,00
710,50	32990,80
710,94	32954,20
711,39	33192,80
711,84	33317,80
712,29	33409,00
712,74	33338,40
713,19	33440,80
713,63	33283,40
714,08	33336,40
714,53	33346,40
714,98	33402,60
715,43	33380,00
715,87	33537,20
716,32	33592,80
716,77	33647,00
717,22	33614,40
717,67	33554,60
718,12	33575,40
718,56	33658,80
719,01	33502,20
719,46	33498,20
719,91	33680,60
720,35	33744,20
720,80	33758,80
721,25	33762,80
721,70	33756,80
722,15	33776,40
722,59	33681,20
723,04	33629,40
723,49	33507,00
723,94	33680,00
724,38	33698,40
724,83	33875,80
725,28	33761,20
725,73	33928,80
726,17	33961,60
726,62	34139,60
727,07	34085,60
727,52	34013,40
727,96	33969,80
728,41	34048,00
728,86	34092,00
729,31	34280,80
729,75	34378,00
730,20	34488,80
730,65	34605,40
731,09	34801,00
731,54	34835,80
731,99	34845,60
732,44	34804,20
732,88	34776,80
733,33	35036,80
733,78	35085,20
734,22	35226,60
734,67	35487,80
735,12	35583,80
735,57	35683,00
736,01	35906,80
736,46	35761,40
736,91	35778,60
737,35	35789,80
737,80	35834,80
738,25	35836,80
738,69	35933,80
739,14	36082,20
739,59	36247,60
740,03	36433,80
740,48	36403,20
740,93	36318,20
741,37	36324,60
741,82	36382,20
742,26	36349,40
742,71	36224,40
743,16	36207,40
743,60	36353,60
744,05	36448,20
744,50	36525,80
744,94	36587,40
745,39	36622,80
745,84	36640,20
746,28	36731,00
746,73	36437,60
747,17	36381,80
747,62	36270,40
748,07	36415,80
748,51	36438,80
748,96	36551,60
749,40	36682,00
749,85	36813,20
750,30	36724,00
750,74	36655,20
751,19	36732,80
751,63	36720,00
752,08	36588,80
752,53	36425,40
752,97	36582,80
753,42	36387,00
753,86	36521,20
754,31	36493,20
754,75	36802,20
755,20	36794,20
755,64	36792,60
756,09	36807,40
756,54	36584,80
756,98	36454,20
757,43	36446,40
757,87	36400,20
758,32	36493,20
758,76	36543,20
759,21	36722,00
759,65	36701,80
760,10	36716,20
760,54	36697,60
760,99	36572,60
761,43	36389,80
761,88	36460,40
762,33	36346,80
762,77	36336,20
763,22	36546,20
763,66	36845,20
764,11	37025,60
764,55	37104,20
765,00	37263,00
765,44	37225,60
765,89	36944,60
766,33	36835,80
766,77	36779,80
767,22	36731,00
767,66	36759,20
768,11	37013,40
768,55	37216,60
769,00	37488,00
769,44	37847,20
769,89	37866,60
770,33	37863,60
770,78	37879,80
771,22	37744,40
771,67	37642,40
772,11	37603,00
772,56	37602,20
773,00	37381,80
773,44	37422,80
773,89	37479,00
774,33	37522,60
774,78	37749,80
775,22	37882,20
775,67	38061,80
776,11	38163,40
776,55	38242,60
777,00	38113,40
777,44	37946,60
777,89	37837,20
778,33	37699,00
778,77	37627,80
779,22	37610,60
779,66	37746,80
780,11	37950,20
780,55	37960,20
780,99	38237,40
781,44	38270,00
781,88	38196,80
782,33	38145,40
782,77	37905,80
783,21	37764,80
783,66	37572,80
784,10	37407,20
784,55	37346,80
784,99	37421,00
785,43	37442,60
785,88	37575,20
786,32	37824,80
786,76	38072,20
787,21	38117,80
787,65	38014,00
788,09	37822,40
788,54	37629,00
788,98	37479,20
789,42	37346,40
789,87	37196,60
790,31	37149,20
790,75	37058,80
791,20	37370,60
791,64	37609,00
792,08	37839,60
792,53	37920,40
792,97	37995,20
793,41	38235,40
793,86	37743,20
794,30	37420,40
794,74	37016,60
795,18	36840,40
795,63	36713,80
796,07	36744,80
796,51	36927,00
796,96	37236,20
797,40	37393,80
797,84	37656,80
798,28	37684,60
798,73	37666,20
799,17	37577,80
799,61	37219,80
800,06	37016,20
800,50	36690,40
800,94	36469,60
801,38	36512,20
801,83	36636,40
802,27	36707,60
802,71	37078,80
803,15	37475,80
803,60	37560,40
804,04	37697,40
804,48	37653,80
804,92	37450,00
805,37	37127,80
805,81	36751,00
806,25	36409,80
806,69	36080,40
807,13	36270,60
807,58	36117,20
808,02	36330,40
808,46	36595,40
808,90	36904,00
809,34	37136,40
809,79	37325,40
810,23	37440,40
810,67	37387,60
811,11	37364,80
811,55	37273,00
812,00	36660,40
812,44	36326,40
812,88	36128,20
813,32	36133,40
813,76	35819,40
814,21	35984,80
814,65	36150,40
815,09	36506,80
815,53	36980,60
815,97	37150,40
816,41	37278,60
816,85	37369,40
817,30	37269,20
817,74	36988,40
818,18	36831,60
818,62	36355,60
819,06	36073,20
819,50	35924,00
819,94	35722,20
820,39	35851,20
820,83	36020,80
821,27	36286,20
821,71	36586,40
822,15	37036,60
822,59	37110,00
823,03	37268,20
823,47	37393,80
823,92	37096,20
824,36	36878,80
824,80	36651,20
825,24	36294,20
825,68	36075,00
826,12	35915,60
826,56	35931,60
827,00	35968,00
827,44	36264,40
827,88	36672,80
828,32	37012,60
828,77	37130,80
829,21	37374,20
829,65	37337,00
830,09	37135,20
830,53	37080,40
830,97	36713,80
831,41	36427,60
831,85	36003,40
832,29	35919,80
832,73	35976,40
833,17	36209,00
833,61	36756,40
834,05	37059,60
834,49	37343,60
834,93	37655,40
835,37	37715,20
835,81	37567,80
836,25	37267,60
836,69	36702,60
837,13	36314,40
837,57	36104,20
838,01	35892,40
838,45	35986,80
838,89	36123,20
839,33	36330,60
839,77	36696,20
840,21	37270,00
840,65	37626,00
841,09	38086,60
841,53	38191,60
841,97	38101,20
842,41	37873,00
842,85	37475,00
843,29	37087,40
843,73	36443,00
844,17	36100,60
844,61	35830,00
845,05	35868,20
845,49	36055,80
845,93	36479,40
846,37	37014,20
846,81	37467,20
847,25	37816,40
847,69	38359,00
848,13	38598,40
848,57	38737,00
849,01	38662,20
849,45	38639,20
849,89	38320,40
850,32	37824,00
850,76	37359,60
851,20	37168,20
851,64	36785,40
852,08	36553,40
852,52	36414,00
852,96	36621,80
853,40	36935,20
853,84	37299,60
854,28	37863,80
854,72	38651,80
855,16	39073,80
855,59	39396,20
856,03	39187,40
856,47	39062,20
856,91	38451,00
857,35	37911,60
857,79	37102,40
858,23	36647,60
858,67	36581,20
859,10	36380,00
859,54	36832,20
859,98	37277,40
860,42	37977,80
860,86	38513,00
861,30	39129,20
861,74	39413,20
862,17	39479,40
862,61	39519,80
863,05	39262,60
863,49	38940,20
863,93	38484,60
864,37	37810,40
864,80	37526,60
865,24	37319,80
865,68	37272,60
866,12	37327,80
866,56	37693,80
867,00	37988,60
867,43	38425,40
867,87	39021,80
868,31	39607,20
868,75	39675,40
869,19	39905,80
869,62	39670,00
870,06	39205,80
870,50	38430,80
870,94	37501,20
871,38	37001,40
871,81	36649,00
872,25	36466,20
872,69	36717,20
873,13	37221,20
873,56	37716,80
874,00	38521,20
874,44	39091,40
874,88	39537,20
875,31	39919,20
875,75	40139,00
876,19	40041,20
876,63	40030,40
877,06	39533,60
877,50	38871,80
877,94	38330,60
878,38	37923,40
878,81	37480,60
879,25	37112,20
879,69	37152,00
880,13	37084,80
880,56	37252,40
881,00	37823,60
881,44	38763,60
881,87	39620,80
882,31	40325,80
882,75	41023,20
883,19	41288,40
883,62	41301,40
884,06	41069,00
884,50	40475,00
884,93	39836,40
885,37	39225,80
885,81	38685,00
886,24	38009,20
886,68	37620,00
887,12	37529,40
887,55	37398,00
887,99	37746,00
888,43	38235,80
888,86	38849,80
889,30	39705,20
889,74	40054,80
890,17	40518,00
890,61	41273,20
891,05	41719,20
891,48	42213,40
891,92	42100,60
892,36	41555,20
892,79	40786,20
893,23	40044,40
893,67	39366,80
894,10	38906,00
894,54	38409,20
894,97	38324,80
895,41	38265,40
895,85	38450,80
896,28	39097,20
896,72	39904,60
897,16	40665,60
897,59	41368,20
898,03	42319,40
898,46	42780,80
898,90	43201,40
899,34	42869,00
899,77	42436,00
900,21	41937,40
900,64	41291,60
901,08	40510,20
901,51	39627,20
901,95	38969,20
902,39	38611,20
902,82	38296,60
903,26	38460,60
903,69	38865,80
904,13	39113,40
904,56	39527,20
905,00	39882,40
905,43	40385,80
905,87	40928,00
906,31	41413,00
906,74	41760,60
907,18	42291,20
907,61	42532,00
908,05	42278,00
908,48	42035,20
908,92	41495,60
909,35	40794,40
909,79	39970,40
910,22	39224,20
910,66	38879,40
911,09	38677,80
911,53	38812,80
911,96	39072,40
912,40	39755,60
912,83	40665,60
913,27	41504,80
913,70	42307,40
914,14	43211,40
914,57	43737,40
915,01	43710,00
915,44	43272,60
915,88	42420,80
916,31	41253,60
916,75	40137,60
917,18	39572,20
917,62	39211,60
918,05	39234,20
918,49	39421,00
918,92	39573,00
919,35	39945,20
919,79	40544,20
920,22	40878,60
920,66	41409,20
921,09	42103,20
921,53	42624,60
921,96	43233,20
922,40	43416,00
922,83	43575,40
923,26	43466,80
923,70	43245,20
924,13	42646,40
924,57	41965,80
925,00	41270,00
925,44	40506,60
925,87	39743,80
926,30	39039,20
926,74	38517,40
927,17	38538,80
927,61	38786,60
928,04	39340,20
928,47	39685,60
928,91	40228,60
929,34	41083,20
929,77	41688,60
930,21	42299,80
930,64	42288,60
931,08	42051,80
931,51	41632,60
931,94	40759,80
932,38	40108,00
932,81	39328,40
933,24	38422,00
933,68	37396,60
934,11	36724,00
934,54	36145,20
934,98	35978,80
935,41	35795,00
935,84	35786,80
936,28	35971,40
936,71	36138,00
937,14	36524,40
937,58	36726,60
938,01	36717,60
938,44	36698,20
938,88	36347,60
939,31	35529,60
939,74	34658,00
940,18	33810,60
940,61	32736,00
941,04	31935,60
941,48	31137,20
941,91	30496,00
942,34	30118,40
942,77	29895,60
943,21	30048,00
943,64	30219,20
944,07	30477,80
944,51	30883,00
944,94	31251,80
945,37	31647,80
945,80	31968,00
946,24	32455,80
946,67	33067,00
947,10	33497,60
947,53	33744,40
947,97	33879,40
948,40	33837,40
948,83	33524,20
949,26	33070,40
949,70	32605,00
950,13	32329,20
950,56	31820,40
950,99	31575,40
951,43	31392,60
951,86	31593,00
952,29	31911,80
952,72	32818,00
953,15	33652,40
953,59	34727,20
954,02	35411,20
954,45	36237,60
954,88	36736,20
955,31	36993,00
955,75	36886,00
956,18	36707,60
956,61	36283,00
957,04	35636,40
957,47	35124,60
957,91	34467,00
958,34	33983,00
958,77	33821,20
959,20	33580,20
959,63	33455,00
960,06	33481,80
960,50	33655,20
960,93	34086,00
961,36	34696,00
961,79	35312,20
962,22	35962,40
962,65	36577,20
963,09	36968,20
963,52	37665,60
963,95	37870,60
964,38	37959,00
964,81	37642,80
965,24	37172,80
965,67	36626,20
966,10	35770,60
966,54	35001,80
966,97	34311,80
967,40	33678,20
967,83	33519,60
968,26	33370,00
968,69	33672,80
969,12	33453,40
969,55	33491,00
969,98	33480,40
970,42	33650,80
970,85	33946,40
971,28	34317,40
971,71	34683,80
972,14	35256,80
972,57	35755,20
973,00	36165,80
973,43	36374,60
973,86	36443,00
974,29	36066,20
974,72	35427,40
975,15	34823,80
975,58	33977,20
976,01	33477,80
976,45	32895,80
976,88	32503,20
977,31	32219,80
977,74	32119,40
978,17	32111,40
978,60	32253,60
979,03	32587,40
979,46	33044,20
979,89	33604,00
980,32	33821,80
980,75	34219,40
981,18	34600,80
981,61	34996,20
982,04	35036,60
982,47	35037,60
982,90	35133,20
983,33	35167,00
983,76	34817,00
984,19	34544,00
984,62	34381,40
985,05	33811,20
985,48	33224,20
985,91	32635,80
986,34	32082,80
986,77	31561,60
987,20	30999,40
987,63	30862,60
988,06	30733,00
988,49	30682,40
988,92	30885,40
989,35	31147,40
989,78	31452,20
990,20	31769,00
990,63	32234,00
991,06	32634,00
991,49	32922,60
991,92	33381,00
992,35	33345,60
992,78	33190,40
993,21	32906,80
993,64	32536,40
994,07	32099,80
994,50	31636,60
994,93	31084,80
995,36	30651,20
995,79	30124,60
996,21	29713,60
996,64	29488,40
997,07	29163,60
997,50	29187,60
997,93	29037,40
998,36	29051,80
998,79	29224,60
999,22	29367,80
999,65	29653,20
1000,07	29926,20
1000,50	30337,20
1000,93	30641,60
1001,36	30661,40
1001,79	30758,00
1002,22	30709,60
1002,65	30379,00
1003,08	29895,80
1003,50	29424,40
1003,93	28749,00
1004,36	28151,40
1004,79	27715,20
1005,22	27197,40
1005,65	26927,60
1006,07	26544,20
1006,50	26335,80
1006,93	26205,20
1007,36	26245,80
1007,79	26146,40
1008,22	26167,60
1008,64	26217,40
1009,07	26346,40
1009,50	26669,20
1009,93	26627,40
1010,36	26665,60
1010,78	26733,40
1011,21	26725,40
1011,64	26754,40
1012,07	26757,20
1012,50	26695,80
1012,92	26409,20
1013,35	26236,40
1013,78	25864,40
1014,21	25288,80
1014,64	24883,80
1015,06	24299,40
1015,49	24068,20
1015,92	23827,00
1016,35	23700,00
1016,77	23589,40
1017,20	23836,00
1017,63	23942,20
1018,06	25245,80
1018,48	24521,80
1018,91	24618,40
1019,34	25018,40
1019,77	25160,40
1020,19	25326,40
1020,62	25508,40
1021,05	25648,20
1021,47	25727,00
1021,90	25885,60
1022,33	26044,60
1022,76	26023,00
1023,18	26228,60
1023,61	25951,00
1024,04	25590,40
1024,46	25372,20
1024,89	25050,60
1025,32	24726,60
1025,75	24450,60
1026,17	24226,80
1026,60	24005,80
1027,03	24089,40
1027,45	23930,80
1027,88	23822,20
1028,31	23790,60
1028,73	24014,80
1029,16	24158,40
1029,59	24405,40
1030,01	24407,80
1030,44	24569,00
1030,87	24581,00
1031,29	24648,40
1031,72	24368,20
1032,15	24355,40
1032,57	24139,40
1033,00	23834,80
1033,42	23563,40
1033,85	23141,40
1034,28	22715,80
1034,70	22333,20
1035,13	21979,00
1035,56	21576,80
1035,98	21438,00
1036,41	21050,40
1036,83	20841,80
1037,26	20664,40
1037,69	20459,80
1038,11	20395,60
1038,54	20335,00
1038,96	20338,80
1039,39	20380,80
1039,82	20422,60
1040,24	20345,80
1040,67	20393,60
1041,09	20385,20
1041,52	20330,00
1041,95	20399,80
1042,37	20187,20
1042,80	19991,40
1043,22	19753,60
1043,65	19434,60
1044,07	19274,00
1044,50	18870,40
1044,92	18679,00
1045,35	18305,60
1045,78	17961,40
1046,20	17788,00
1046,63	17625,40
1047,05	17333,40
1047,48	17108,80
1047,90	17029,60
1048,33	16779,80
1048,75	16784,80
1049,18	16697,20
1049,60	16640,80
1050,03	16568,60
1050,45	16457,20
1050,88	16486,00
1051,30	16432,40
1051,73	16418,80
1052,15	16335,60
1052,58	16206,40
1053,00	16160,80
1053,43	15980,80
1053,85	15951,60
1054,28	15754,60
1054,70	15704,40
1055,13	15448,00
1055,55	15319,80
1055,98	15124,20
1056,40	15044,00
1056,83	14781,20
1057,25	14587,80
1057,68	14345,60
1058,10	14372,80
1058,52	13976,40
1058,95	13835,60
1059,37	13713,20
1059,80	13464,00
1060,22	13351,60
1060,65	13139,20
1061,07	13135,80
1061,50	13036,20
1061,92	12865,20
1062,34	12889,00
1062,77	12844,40
1063,19	12703,80
1063,62	12700,60
1064,04	12535,00
1064,46	12599,00
1064,89	12593,80
1065,31	12402,40
1065,74	12325,80
1066,16	12267,00
1066,58	12253,40
1067,01	12088,20
1067,43	12018,40
1067,86	11876,20
1068,28	11682,00
1068,70	11610,40
1069,13	11472,80
1069,55	11285,80
1069,97	11110,80
1070,40	11139,80
1070,82	10987,80
1071,25	10893,20
1071,67	10724,20
1072,09	10732,20
1072,52	10600,20
1072,94	10533,00
1073,36	10415,00
1073,79	10460,80
1074,21	10349,60
1074,63	10268,20
1075,06	10262,00
1075,48	10248,60
1075,90	10244,00
1076,33	10188,60
1076,75	10172,60
1077,17	10124,00
1077,59	10113,60
1078,02	10023,40
1078,44	10001,00
1078,86	9954,60
1079,29	9704,00
1079,71	9673,80
1080,13	9505,60
1080,56	9448,80
1080,98	9321,40
1081,40	9215,20
1081,82	9141,00
1082,25	9065,00
1082,67	8935,20
1083,09	8867,40
1083,51	8824,00
1083,94	8736,20
1084,36	8742,80
1084,78	8639,00
1085,21	8623,60
1085,63	8652,20
1086,05	8480,00
1086,47	8478,80
1086,89	8507,00
1087,32	8382,20
1087,74	8460,60
1088,16	10372,60
1088,58	8323,20
1089,01	8323,20
1089,43	8288,40
1089,85	8207,20
1090,27	8197,20
1090,69	8081,00
1091,12	7942,20
1091,54	7887,20
1091,96	7792,60
1092,38	7689,60
1092,80	7630,60
1093,23	7508,80
1093,65	7446,60
1094,07	7346,60
1094,49	7283,80
1094,91	7264,80
1095,34	7164,20
1095,76	7130,00
1096,18	7113,20
1096,60	7109,00
1097,02	6999,80
1097,44	6985,00
1097,87	6932,60
1098,29	6975,80
1098,71	6936,60
1099,13	6928,20
1099,55	6841,80
1099,97	6771,00
1100,39	6726,40
1100,82	6614,20
1101,24	6567,00
1101,66	6512,40
1102,08	6366,00
1102,50	6289,80
1102,92	6231,60
1103,34	6173,00
1103,76	6135,00
1104,19	6556,80
1104,61	6122,20
1105,03	5936,40
1105,45	5995,60
1105,87	5979,20
1106,29	5900,80
1106,71	5918,60
1107,13	5797,40
1107,55	5785,00
1107,97	5843,80
1108,39	5628,40
1108,82	5648,80
1109,24	5566,60
1109,66	5495,00
1110,08	5327,60
1110,50	5325,80
1110,92	5292,60
1111,34	5285,60
1111,76	5228,00
1112,18	5216,20
1112,60	5155,20
1113,02	5148,40
1113,44	5040,80
1113,86	4900,20
1114,28	4879,00
1114,70	4781,60
1115,12	4678,60
1115,54	4698,80
1115,96	4596,20
1116,38	4404,40
1116,80	4276,00
1117,22	4089,80
1117,64	3974,40
1118,06	2158,80
1118,48	2197,80
1118,90	2198,40
1119,32	2200,00
>>>>>End Processed Spectral Data<<<<<
