SpectraSuite Data File
++++++++++++++++++++++++++++++++++++
Date: Tue Oct 14 10:40:47 EEST 2014
User: OO Maya
Dark Spectrum Present: No
Reference Spectrum Present: No
Number of Sampled Component Spectra: 1
Spectrometers: MAYP11278
Integration Time (usec): 10000000 (MAYP11278)
Spectra Averaged: 5 (MAYP11278)
Boxcar Smoothing: 0 (MAYP11278)
Correct for Electrical Dark: No (MAYP11278)
Strobe/Lamp Enabled: No (MAYP11278)
Correct for Detector Non-linearity: No (MAYP11278)
Correct for Stray Light: No (MAYP11278)
Number of Pixels in Processed Spectrum: 2068
>>>>>Begin Processed Spectral Data<<<<<
188,14	2311,40
188,62	2226,80
189,09	2197,60
189,57	2199,40
190,05	19872,20
190,53	21510,60
191,01	21654,20
191,49	21781,00
191,97	22802,00
192,44	21728,20
192,92	21364,00
193,40	20715,20
193,88	21735,00
194,36	21639,60
194,84	22211,80
195,31	21461,60
195,79	22641,80
196,27	21425,00
196,75	21829,80
197,23	24688,20
197,70	21806,80
198,18	20989,40
198,66	21634,20
199,14	20990,60
199,62	22374,20
200,09	22758,60
200,57	21587,80
201,05	21719,80
201,53	22746,00
202,01	22675,20
202,48	22725,60
202,96	21042,80
203,44	22409,60
203,92	21271,20
204,40	22978,00
204,87	23386,20
205,35	21483,00
205,83	21527,80
206,31	23577,00
206,78	21843,20
207,26	22578,40
207,74	24844,00
208,22	22340,80
208,69	22890,40
209,17	21832,80
209,65	23024,00
210,13	22820,00
210,60	22157,80
211,08	22059,00
211,56	22703,80
212,04	22308,40
212,51	21447,00
212,99	24172,80
213,47	22822,20
213,95	21764,40
214,42	23758,00
214,90	22586,00
215,38	23833,20
215,85	22655,60
216,33	22927,80
216,81	22853,60
217,29	22923,60
217,76	21683,00
218,24	22281,60
218,72	23747,80
219,19	20977,40
219,67	21619,00
220,15	21716,80
220,62	22323,20
221,10	24703,60
221,58	21783,60
222,05	23318,00
222,53	21824,80
223,01	23148,80
223,49	21998,20
223,96	23245,80
224,44	22156,00
224,92	21904,20
225,39	21459,60
225,87	22180,60
226,35	21799,00
226,82	22353,80
227,30	23473,00
227,77	22239,20
228,25	22876,00
228,73	23032,60
229,20	22931,00
229,68	22134,40
230,16	22407,80
230,63	21968,60
231,11	23217,60
231,59	23215,20
232,06	22545,60
232,54	22787,60
233,02	21636,20
233,49	22535,20
233,97	22645,80
234,44	26199,60
234,92	22897,00
235,40	21910,20
235,87	21508,00
236,35	21153,00
236,82	23434,00
237,30	24754,40
237,78	22023,80
238,25	22608,60
238,73	22688,60
239,20	22657,00
239,68	22344,20
240,16	21253,80
240,63	23150,20
241,11	24036,00
241,58	22739,40
242,06	22261,80
242,53	23342,20
243,01	23670,80
243,49	21477,00
243,96	21655,80
244,44	23390,80
244,91	23955,00
245,39	22218,00
245,86	23706,60
246,34	58884,60
246,82	21460,60
247,29	22655,40
247,77	22514,20
248,24	22782,20
248,72	22849,00
249,19	20999,80
249,67	22510,40
250,14	23209,20
250,62	22789,20
251,09	24062,20
251,57	22773,40
252,04	24772,40
252,52	23983,20
253,00	22122,00
253,47	23861,00
253,95	22698,40
254,42	22502,80
254,90	22936,00
255,37	22845,60
255,85	23486,40
256,32	22203,80
256,80	22839,40
257,27	23264,00
257,75	23676,80
258,22	25944,80
258,70	22882,60
259,17	22134,60
259,65	22956,40
260,12	23152,40
260,59	24267,40
261,07	22428,80
261,54	22215,40
262,02	23771,20
262,49	21907,20
262,97	22952,80
263,44	22445,00
263,92	21423,20
264,39	23442,20
264,87	23844,00
265,34	22265,00
265,82	22876,80
266,29	23099,80
266,76	23485,20
267,24	22341,80
267,71	22591,00
268,19	23018,20
268,66	23049,40
269,14	21056,60
269,61	21683,60
270,09	21690,80
270,56	23109,20
271,03	23695,40
271,51	22132,80
271,98	22626,20
272,46	21420,20
272,93	21539,80
273,40	20863,00
273,88	22662,60
274,35	26414,60
274,83	23129,80
275,30	23220,60
275,78	21947,00
276,25	22434,00
276,72	23138,20
277,20	23211,40
277,67	21298,00
278,14	22180,40
278,62	21007,00
279,09	26176,20
279,57	21605,60
280,04	21551,40
280,51	26470,20
280,99	24132,80
281,46	26989,00
281,93	22958,40
282,41	24460,80
282,88	22781,80
283,36	22826,20
283,83	23259,60
284,30	21933,80
284,78	21799,60
285,25	23553,60
285,72	22715,00
286,20	23121,80
286,67	22935,80
287,14	21341,60
287,62	23167,40
288,09	24215,00
288,56	22428,00
289,04	23544,00
289,51	20945,80
289,98	24399,60
290,46	21966,60
290,93	22968,80
291,40	22034,80
291,88	22964,00
292,35	25214,80
292,82	22110,20
293,29	23872,80
293,77	22127,20
294,24	23235,60
294,71	23116,20
295,19	22110,60
295,66	22555,60
296,13	22947,60
296,61	24704,40
297,08	24434,40
297,55	23468,80
298,02	23202,80
298,50	23097,60
298,97	22256,80
299,44	24530,80
299,91	22587,60
300,39	23270,20
300,86	22215,40
301,33	23790,80
301,81	23824,60
302,28	23615,60
302,75	21689,00
303,22	23407,00
303,70	23534,60
304,17	22045,40
304,64	22237,60
305,11	21841,00
305,58	22981,20
306,06	23172,40
306,53	23047,40
307,00	23647,20
307,47	22279,00
307,95	22425,80
308,42	23015,20
308,89	22337,20
309,36	23755,60
309,83	23818,80
310,31	23245,20
310,78	22951,80
311,25	23392,40
311,72	22335,40
312,20	24098,40
312,67	22839,60
313,14	24766,20
313,61	22376,40
314,08	22700,20
314,56	23351,60
315,03	22665,00
315,50	22576,40
315,97	24350,60
316,44	24088,00
316,91	23924,40
317,39	24386,00
317,86	23985,40
318,33	26810,40
318,80	23799,60
319,27	23725,20
319,74	22626,20
320,22	24376,40
320,69	26017,60
321,16	24981,80
321,63	23752,60
322,10	22557,20
322,57	23169,80
323,04	25998,20
323,52	23971,00
323,99	27243,00
324,46	22958,80
324,93	24600,00
325,40	24327,80
325,87	24179,00
326,34	24270,20
326,82	24343,40
327,29	25273,20
327,76	25480,60
328,23	25630,20
328,70	25343,40
329,17	24934,00
329,64	24860,20
330,11	24913,80
330,58	24562,40
331,05	26140,20
331,53	25641,80
332,00	26976,40
332,47	24593,60
332,94	27540,80
333,41	26537,20
333,88	26551,80
334,35	27401,20
334,82	26405,20
335,29	26804,40
335,76	30412,60
336,23	25655,00
336,70	26643,40
337,18	26175,40
337,65	26754,00
338,12	26222,40
338,59	26310,40
339,06	28475,40
339,53	27719,60
340,00	25862,00
340,47	26133,40
340,94	26338,00
341,41	27569,80
341,88	28541,80
342,35	27045,80
342,82	27898,00
343,29	28401,40
343,76	28070,40
344,23	27367,60
344,70	27781,20
345,17	27038,40
345,64	27824,40
346,11	28529,40
346,58	27443,60
347,05	27292,20
347,52	29657,20
347,99	27534,40
348,46	29309,40
348,93	28323,40
349,40	26925,80
349,87	28432,20
350,34	29321,80
350,81	28656,80
351,28	27775,20
351,75	29149,00
352,22	30812,20
352,69	29222,80
353,16	28838,40
353,63	29309,00
354,10	29925,60
354,57	29525,20
355,04	30039,00
355,51	29685,20
355,98	31178,80
356,45	28817,40
356,92	31383,60
357,39	28904,60
357,86	32193,60
358,33	30727,20
358,80	28948,20
359,27	29370,40
359,74	29833,80
360,21	30003,40
360,68	31516,20
361,14	32287,80
361,61	30418,20
362,08	30712,80
362,55	31154,00
363,02	30820,80
363,49	30899,00
363,96	33683,00
364,43	31906,60
364,90	30631,80
365,37	31913,00
365,84	31040,80
366,31	30463,60
366,77	31871,80
367,24	31699,60
367,71	46394,60
368,18	30437,00
368,65	31235,60
369,12	33033,00
369,59	31376,40
370,06	33488,20
370,53	32886,00
370,99	32296,20
371,46	40555,00
371,93	33203,80
372,40	32159,60
372,87	31589,60
373,34	32164,20
373,81	33047,60
374,27	31732,40
374,74	32125,40
375,21	33317,00
375,68	31511,60
376,15	34541,40
376,62	32625,80
377,09	31930,20
377,55	31826,20
378,02	33446,60
378,49	33026,40
378,96	32353,20
379,43	32276,80
379,90	31858,40
380,36	32145,80
380,83	32721,40
381,30	30867,60
381,77	31789,80
382,24	31204,80
382,71	27941,40
383,17	29044,60
383,64	27726,60
384,11	28868,60
384,58	27420,60
385,05	32788,00
385,51	26850,60
385,98	26113,20
386,45	25948,00
386,92	27913,80
387,39	25083,80
387,85	24626,60
388,32	26660,40
388,79	25781,40
389,26	26624,00
389,72	24663,60
390,19	25769,60
390,66	25403,00
391,13	25621,60
391,59	25176,60
392,06	25043,20
392,53	25115,80
393,00	24463,20
393,46	24298,60
393,93	26957,40
394,40	24160,60
394,87	25358,80
395,33	23264,80
395,80	24575,80
396,27	29004,00
396,74	22376,00
397,20	24178,00
397,67	24341,40
398,14	22383,80
398,61	23261,40
399,07	22737,20
399,54	22209,80
400,01	24234,80
400,47	22085,80
400,94	22883,20
401,41	22540,80
401,88	23485,20
402,34	23318,40
402,81	23052,80
403,28	22155,40
403,74	24673,00
404,21	22622,60
404,68	24336,60
405,14	25086,20
405,61	24272,40
406,08	21959,80
406,54	23688,80
407,01	23586,00
407,48	25354,40
407,95	22854,00
408,41	23189,80
408,88	23544,60
409,35	21843,40
409,81	24213,00
410,28	22011,20
410,74	24285,00
411,21	22100,80
411,68	24438,00
412,14	22583,80
412,61	21199,00
413,08	23376,00
413,54	22395,20
414,01	23295,80
414,48	23504,80
414,94	24774,40
415,41	22684,80
415,88	24674,60
416,34	23221,80
416,81	23019,40
417,27	25020,00
417,74	23366,60
418,21	22666,80
418,67	23051,80
419,14	23053,00
419,60	23857,00
420,07	22098,80
420,54	23830,20
421,00	21711,60
421,47	22764,80
421,93	22268,40
422,40	23449,80
422,87	22383,40
423,33	22805,40
423,80	23380,20
424,26	23810,80
424,73	22932,80
425,19	23864,60
425,66	22937,20
426,13	24418,80
426,59	22469,20
427,06	24319,60
427,52	23665,00
427,99	23947,20
428,45	21925,00
428,92	24022,80
429,38	23470,40
429,85	22989,60
430,32	23298,80
430,78	26511,80
431,25	21650,60
431,71	22716,20
432,18	24649,20
432,64	23826,80
433,11	22754,20
433,57	22344,40
434,04	22799,40
434,50	22533,40
434,97	23595,60
435,43	21831,80
435,90	23650,40
436,36	23041,40
436,83	21852,20
437,29	23716,80
437,76	23215,20
438,22	23255,80
438,69	22231,20
439,15	22587,20
439,62	27185,40
440,08	23185,60
440,55	23926,60
441,01	24320,40
441,48	22128,40
441,94	22525,60
442,41	25752,00
442,87	21925,80
443,34	23328,00
443,80	23232,80
444,27	21756,40
444,73	24572,60
445,20	23357,00
445,66	22876,60
446,12	22749,60
446,59	23362,40
447,05	22657,20
447,52	22921,20
447,98	22265,60
448,45	22128,20
448,91	23513,40
449,38	23484,40
449,84	22720,40
450,30	22057,20
450,77	21902,60
451,23	22050,20
451,70	22981,80
452,16	23636,40
452,63	22066,00
453,09	23996,00
453,55	22678,20
454,02	22685,20
454,48	22895,40
454,95	23416,60
455,41	22402,80
455,87	22930,20
456,34	23658,80
456,80	22242,60
457,27	24155,40
457,73	22655,60
458,19	22646,20
458,66	21533,60
459,12	23010,00
459,58	22502,80
460,05	22981,80
460,51	22120,40
460,98	21684,80
461,44	24324,80
461,90	23697,20
462,37	21836,80
462,83	21424,80
463,29	23754,20
463,76	22206,80
464,22	22809,20
464,68	22677,00
465,15	21637,00
465,61	21994,40
466,07	23431,40
466,54	22495,00
467,00	22994,80
467,46	22890,00
467,93	22222,80
468,39	22633,20
468,85	22942,00
469,32	21975,60
469,78	21402,00
470,24	22770,40
470,71	22440,60
471,17	21845,60
471,63	22020,20
472,10	21400,00
472,56	21779,20
473,02	22015,20
473,48	23602,80
473,95	21984,40
474,41	21354,40
474,87	22054,20
475,34	21031,40
475,80	22400,20
476,26	22119,20
476,72	22413,40
477,19	21997,20
477,65	22055,00
478,11	23725,60
478,58	22259,40
479,04	23094,20
479,50	21180,20
479,96	23951,00
480,43	22503,80
480,89	22258,80
481,35	21279,60
481,81	21914,00
482,28	21941,40
482,74	20539,60
483,20	21515,20
483,66	20501,20
484,13	21468,00
484,59	23532,40
485,05	21973,00
485,51	21695,00
485,97	20099,60
486,44	21424,00
486,90	20062,20
487,36	22045,00
487,82	20286,60
488,29	20237,00
488,75	20777,20
489,21	21763,20
489,67	21495,00
490,13	22597,60
490,60	20401,00
491,06	21552,40
491,52	20064,80
491,98	20776,80
492,44	19763,00
492,90	22474,00
493,37	21489,40
493,83	21366,00
494,29	20487,80
494,75	20934,40
495,21	20637,00
495,67	20415,00
496,14	21276,40
496,60	20710,00
497,06	21080,60
497,52	23143,40
497,98	22459,80
498,44	20565,40
498,91	21353,20
499,37	20858,60
499,83	23970,40
500,29	21261,60
500,75	20541,20
501,21	20964,40
501,67	20648,00
502,14	21725,60
502,60	20914,00
503,06	21070,20
503,52	20970,20
503,98	21654,40
504,44	20452,80
504,90	21582,20
505,36	21426,20
505,82	20308,60
506,29	20952,00
506,75	21997,80
507,21	21057,40
507,67	21584,00
508,13	21402,80
508,59	20295,60
509,05	20221,80
509,51	19578,00
509,97	20718,40
510,43	20956,00
510,89	20378,00
511,35	22456,20
511,82	22351,20
512,28	20258,80
512,74	19540,00
513,20	20107,60
513,66	21542,60
514,12	19277,60
514,58	21800,20
515,04	23151,20
515,50	19495,80
515,96	21250,40
516,42	22178,00
516,88	21910,00
517,34	23839,40
517,80	21459,60
518,26	21092,00
518,72	24987,80
519,18	21036,20
519,64	20317,80
520,10	19840,60
520,56	20149,80
521,02	21232,60
521,48	21603,60
521,94	21844,00
522,40	20907,80
522,86	20027,40
523,32	22918,40
523,78	22037,60
524,24	20715,20
524,70	23243,60
525,16	21674,60
525,62	21415,20
526,08	22616,60
526,54	21271,40
527,00	21107,80
527,46	20310,00
527,92	20794,40
528,38	21951,80
528,84	21596,80
529,30	20588,80
529,76	20058,60
530,22	21637,20
530,68	21726,20
531,14	19736,00
531,60	22268,40
532,06	20962,80
532,52	20986,40
532,98	20998,00
533,44	21573,20
533,90	20817,20
534,36	19918,00
534,82	20819,40
535,28	20401,40
535,73	21237,00
536,19	20481,00
536,65	21453,80
537,11	19985,80
537,57	21658,00
538,03	20895,20
538,49	20991,20
538,95	22843,20
539,41	21728,80
539,87	27203,20
540,33	19759,80
540,79	22868,60
541,24	21233,00
541,70	19858,20
542,16	21616,40
542,62	21353,00
543,08	20524,00
543,54	24075,00
544,00	19865,60
544,46	23300,40
544,91	21758,00
545,37	20631,80
545,83	20635,80
546,29	21852,60
546,75	20882,80
547,21	21412,80
547,67	21891,00
548,13	21326,40
548,58	20798,20
549,04	20562,40
549,50	20036,00
549,96	23567,20
550,42	20686,40
550,88	19909,00
551,33	21358,40
551,79	20969,20
552,25	23013,40
552,71	21380,00
553,17	20191,60
553,63	21521,00
554,08	20699,60
554,54	19994,60
555,00	21321,20
555,46	21167,40
555,92	23127,40
556,37	21128,00
556,83	22445,80
557,29	19380,80
557,75	21406,40
558,21	23462,00
558,66	20526,40
559,12	20800,20
559,58	20170,40
560,04	20287,80
560,50	20013,80
560,95	20943,20
561,41	20761,80
561,87	20761,40
562,33	20284,20
562,78	20272,00
563,24	21019,60
563,70	22159,80
564,16	20031,20
564,61	21200,00
565,07	20630,00
565,53	20770,00
565,99	21257,00
566,44	22450,60
566,90	20681,80
567,36	20373,00
567,82	20999,40
568,27	21959,60
568,73	20370,00
569,19	20822,80
569,65	21649,20
570,10	21101,00
570,56	20823,60
571,02	21821,00
571,47	21734,40
571,93	20898,40
572,39	21109,80
572,85	21478,20
573,30	20292,80
573,76	20427,20
574,22	21001,80
574,67	22619,60
575,13	22039,40
575,59	19815,00
576,04	21269,40
576,50	19260,00
576,96	22354,60
577,42	20677,00
577,87	20534,60
578,33	19828,60
578,79	22379,80
579,24	20796,80
579,70	20539,60
580,16	21244,40
580,61	21283,00
581,07	20915,80
581,53	20927,60
581,98	21187,40
582,44	20760,00
582,89	19796,20
583,35	20862,60
583,81	21336,20
584,26	20868,60
584,72	21612,80
585,18	20328,60
585,63	24011,60
586,09	20757,00
586,55	20697,00
587,00	20858,60
587,46	20833,00
587,91	22070,60
588,37	19900,00
588,83	21601,00
589,28	20755,40
589,74	20348,20
590,19	21438,20
590,65	21798,00
591,11	20622,80
591,56	19621,80
592,02	22511,20
592,47	20296,00
592,93	21352,60
593,39	21061,40
593,84	21912,20
594,30	21087,20
594,75	20869,20
595,21	22453,00
595,66	20630,60
596,12	20036,80
596,58	22728,60
597,03	21790,00
597,49	22311,20
597,94	21303,20
598,40	19663,80
598,85	20935,40
599,31	22585,60
599,76	20308,80
600,22	21623,40
600,67	22235,00
601,13	21519,20
601,59	21846,80
602,04	19690,20
602,50	24605,60
602,95	20608,80
603,41	21131,40
603,86	19689,40
604,32	19584,00
604,77	21563,40
605,23	20569,00
605,68	21566,00
606,14	21080,00
606,59	19585,80
607,05	21079,60
607,50	20480,60
607,96	21064,60
608,41	21666,40
608,87	20914,40
609,32	23900,00
609,78	21934,00
610,23	20780,80
610,69	20483,20
611,14	21124,60
611,60	19827,80
612,05	23222,20
612,50	21588,80
612,96	21074,20
613,41	24504,00
613,87	19777,80
614,32	19776,20
614,78	19868,60
615,23	19825,20
615,69	20666,80
616,14	20905,80
616,59	19852,80
617,05	20751,40
617,50	20769,40
617,96	21834,60
618,41	20242,40
618,87	20565,00
619,32	20727,20
619,77	21765,80
620,23	20606,40
620,68	21717,20
621,14	22065,80
621,59	20987,80
622,05	21991,80
622,50	22468,00
622,95	22140,40
623,41	20285,40
623,86	20183,40
624,32	22093,00
624,77	19684,60
625,22	20717,20
625,68	21172,00
626,13	20146,00
626,58	20838,00
627,04	21330,00
627,49	19921,60
627,95	21741,80
628,40	21917,80
628,85	19612,60
629,31	20766,20
629,76	21048,60
630,21	20335,20
630,67	21607,60
631,12	20921,40
631,57	21825,80
632,03	21303,00
632,48	22068,20
632,93	20287,20
633,39	20674,80
633,84	20393,20
634,29	20460,60
634,75	20052,60
635,20	20453,00
635,65	20317,60
636,11	19595,20
636,56	20897,40
637,01	20731,80
637,47	20066,00
637,92	21764,60
638,37	21941,00
638,83	20530,40
639,28	20998,20
639,73	19913,20
640,18	19360,60
640,64	21303,60
641,09	22016,40
641,54	19608,20
642,00	20486,20
642,45	20635,00
642,90	19409,20
643,35	20389,40
643,81	21756,40
644,26	20304,60
644,71	19895,20
645,17	20434,00
645,62	20061,60
646,07	20871,40
646,52	21013,60
646,98	21480,60
647,43	21735,40
647,88	21039,40
648,33	21277,60
648,79	19767,20
649,24	22291,80
649,69	21432,40
650,14	25719,00
650,59	20062,40
651,05	20064,60
651,50	20316,20
651,95	21068,60
652,40	19999,20
652,86	20883,40
653,31	20188,60
653,76	20162,00
654,21	20937,40
654,66	21294,40
655,12	20574,60
655,57	19810,00
656,02	21508,20
656,47	20121,40
656,92	20755,20
657,38	21527,80
657,83	21478,60
658,28	20070,80
658,73	20947,40
659,18	19981,80
659,63	25935,40
660,09	20466,00
660,54	22190,40
660,99	20834,20
661,44	20006,20
661,89	20763,20
662,34	19955,00
662,80	19256,40
663,25	21291,40
663,70	20399,20
664,15	20377,80
664,60	20677,00
665,05	19789,80
665,50	21043,00
665,96	19580,60
666,41	21017,60
666,86	20902,60
667,31	23827,20
667,76	22296,60
668,21	20112,20
668,66	21134,80
669,11	19993,80
669,56	23473,00
670,02	19160,60
670,47	20210,00
670,92	22105,60
671,37	20860,00
671,82	22589,80
672,27	23580,60
672,72	20709,60
673,17	21046,00
673,62	22307,20
674,07	24805,60
674,52	21083,20
674,98	21294,00
675,43	19483,00
675,88	19700,00
676,33	21048,40
676,78	20578,20
677,23	20520,60
677,68	20320,80
678,13	24034,00
678,58	20158,00
679,03	20548,60
679,48	21253,60
679,93	20256,20
680,38	20883,80
680,83	20883,00
681,28	19087,20
681,73	19092,60
682,18	20439,00
682,63	20817,40
683,08	21518,60
683,53	21243,00
683,98	21068,40
684,43	22269,20
684,89	21353,40
685,34	20958,20
685,79	21328,60
686,24	20696,40
686,69	19998,80
687,14	21004,40
687,59	20335,40
688,04	21035,40
688,49	20697,40
688,93	24041,40
689,38	21631,40
689,83	19415,60
690,28	20609,00
690,73	20710,40
691,18	19574,40
691,63	20767,20
692,08	19541,60
692,53	20739,80
692,98	20651,60
693,43	21519,40
693,88	21218,40
694,33	20836,80
694,78	21220,20
695,23	26079,40
695,68	21005,60
696,13	21003,40
696,58	23157,00
697,03	20701,40
697,48	20328,60
697,93	21373,60
698,38	20176,60
698,82	21627,00
699,27	21767,80
699,72	20384,20
700,17	20720,80
700,62	21593,40
701,07	22042,60
701,52	25555,80
701,97	19723,40
702,42	22765,80
702,87	20293,00
703,32	20590,60
703,76	21234,00
704,21	20855,20
704,66	20441,80
705,11	22363,20
705,56	22217,00
706,01	22079,40
706,46	19901,00
706,91	21724,60
707,36	21051,40
707,80	20860,80
708,25	21385,00
708,70	22183,20
709,15	21345,00
709,60	20662,60
710,05	21015,00
710,50	21184,60
710,94	20569,80
711,39	21886,40
711,84	21341,20
712,29	21397,80
712,74	20602,00
713,19	23694,80
713,63	21209,80
714,08	21602,60
714,53	22987,00
714,98	22336,20
715,43	21093,00
715,87	21480,00
716,32	20992,80
716,77	21030,40
717,22	20326,80
717,67	20203,60
718,12	21956,20
718,56	23533,40
719,01	20577,00
719,46	20484,00
719,91	21781,80
720,35	21467,00
720,80	20941,40
721,25	21852,40
721,70	21074,80
722,15	22075,80
722,59	21530,20
723,04	20441,00
723,49	20231,40
723,94	21814,80
724,38	20229,00
724,83	22211,80
725,28	20225,60
725,73	21643,40
726,17	21645,80
726,62	22022,40
727,07	24196,00
727,52	21102,00
727,96	23655,00
728,41	22565,20
728,86	21753,20
729,31	23567,00
729,75	21518,20
730,20	23280,20
730,65	21287,20
731,09	22503,60
731,54	22770,20
731,99	22640,60
732,44	22750,20
732,88	21602,00
733,33	23216,20
733,78	22782,20
734,22	21876,60
734,67	23462,80
735,12	23396,00
735,57	22872,60
736,01	26086,40
736,46	21942,80
736,91	22856,00
737,35	23652,80
737,80	23593,40
738,25	22938,20
738,69	22521,80
739,14	22961,40
739,59	21674,20
740,03	24183,00
740,48	23498,40
740,93	22130,20
741,37	23276,40
741,82	23575,00
742,26	22785,20
742,71	22916,80
743,16	21823,60
743,60	21872,00
744,05	22548,80
744,50	23930,00
744,94	23773,00
745,39	23210,20
745,84	23665,80
746,28	24371,20
746,73	20572,60
747,17	21722,20
747,62	21271,40
748,07	22810,20
748,51	22240,20
748,96	21957,20
749,40	22800,20
749,85	25537,40
750,30	22628,80
750,74	22168,80
751,19	21106,00
751,63	21824,20
752,08	21775,40
752,53	21974,20
752,97	24444,40
753,42	21523,80
753,86	21867,80
754,31	20876,80
754,75	21650,80
755,20	20928,00
755,64	21834,80
756,09	22100,60
756,54	23247,40
756,98	21707,80
757,43	23380,40
757,87	21975,80
758,32	21583,40
758,76	21669,80
759,21	21462,20
759,65	20884,00
760,10	21664,80
760,54	22253,00
760,99	21683,40
761,43	22485,80
761,88	23292,80
762,33	21350,80
762,77	20448,40
763,22	21426,40
763,66	22516,00
764,11	21541,80
764,55	20549,20
765,00	21156,00
765,44	22045,00
765,89	20771,20
766,33	20370,20
766,77	20935,40
767,22	21583,60
767,66	21686,60
768,11	21833,20
768,55	22316,60
769,00	21252,80
769,44	23819,80
769,89	20542,40
770,33	21289,00
770,78	20708,00
771,22	20415,20
771,67	22151,60
772,11	21694,60
772,56	21802,60
773,00	19955,60
773,44	21089,80
773,89	20757,40
774,33	19652,60
774,78	21430,00
775,22	20557,60
775,67	21511,80
776,11	21384,00
776,55	20472,40
777,00	21192,60
777,44	21130,00
777,89	21801,80
778,33	22253,20
778,77	21032,00
779,22	21528,80
779,66	24846,80
780,11	23091,60
780,55	21592,60
780,99	22782,80
781,44	22104,40
781,88	20606,80
782,33	21833,40
782,77	20457,60
783,21	21093,00
783,66	22204,80
784,10	22477,40
784,55	21395,80
784,99	21079,60
785,43	21260,80
785,88	20770,60
786,32	22230,80
786,76	22714,60
787,21	22853,80
787,65	20593,20
788,09	20908,60
788,54	21827,40
788,98	20890,00
789,42	21316,80
789,87	21049,00
790,31	21825,00
790,75	20734,60
791,20	21059,40
791,64	22961,40
792,08	21275,80
792,53	21683,40
792,97	21191,40
793,41	26765,40
793,86	22968,80
794,30	21905,40
794,74	22036,60
795,18	21767,80
795,63	20882,00
796,07	22278,20
796,51	21601,80
796,96	21826,40
797,40	21410,00
797,84	20966,80
798,28	21919,40
798,73	23281,20
799,17	22411,40
799,61	21201,00
800,06	24142,40
800,50	22617,60
800,94	21553,20
801,38	22774,80
801,83	22644,00
802,27	21604,20
802,71	23775,20
803,15	24652,80
803,60	23409,00
804,04	22981,00
804,48	22604,40
804,92	22335,20
805,37	24870,80
805,81	25655,00
806,25	25241,00
806,69	23697,20
807,13	25672,20
807,58	22846,80
808,02	23357,60
808,46	22364,00
808,90	24072,20
809,34	23707,80
809,79	23072,40
810,23	22739,20
810,67	24272,00
811,11	25298,80
811,55	27903,20
812,00	23253,20
812,44	22960,80
812,88	24454,80
813,32	25881,20
813,76	24720,40
814,21	23781,00
814,65	24573,40
815,09	24283,20
815,53	23951,20
815,97	23248,40
816,41	22526,80
816,85	22926,00
817,30	24176,80
817,74	23381,40
818,18	24323,40
818,62	22501,80
819,06	23734,80
819,50	24185,60
819,94	22492,80
820,39	23212,00
820,83	22249,80
821,27	22549,60
821,71	21730,60
822,15	24355,80
822,59	21588,00
823,03	22522,80
823,47	22735,00
823,92	21321,20
824,36	22417,00
824,80	22150,40
825,24	22441,80
825,68	22455,80
826,12	21039,40
826,56	21660,80
827,00	20194,60
827,44	21917,00
827,88	22754,40
828,32	23392,00
828,77	21284,20
829,21	22825,80
829,65	22254,00
830,09	21143,20
830,53	23688,80
830,97	21317,80
831,41	24489,40
831,85	22949,60
832,29	22496,40
832,73	20365,40
833,17	21427,20
833,61	21370,20
834,05	23438,60
834,49	22448,00
834,93	21475,40
835,37	21064,80
835,81	22771,60
836,25	21460,40
836,69	21887,80
837,13	21418,60
837,57	22476,00
838,01	20780,80
838,45	20881,80
838,89	21775,40
839,33	21494,20
839,77	23260,20
840,21	23977,40
840,65	21743,40
841,09	23074,80
841,53	19853,60
841,97	20873,80
842,41	20190,40
842,85	21098,40
843,29	22249,80
843,73	21569,80
844,17	22273,20
844,61	21451,00
845,05	20641,40
845,49	22146,40
845,93	21228,20
846,37	22170,60
846,81	20899,60
847,25	20695,20
847,69	21653,80
848,13	20839,00
848,57	21191,40
849,01	21105,00
849,45	22105,00
849,89	22965,60
850,32	22249,20
850,76	21188,00
851,20	22481,60
851,64	20748,80
852,08	21839,60
852,52	22777,60
852,96	21010,40
853,40	21030,80
853,84	22264,00
854,28	20369,00
854,72	22607,40
855,16	20365,20
855,59	21007,40
856,03	22855,00
856,47	23501,00
856,91	21707,60
857,35	22051,40
857,79	21680,60
858,23	20486,80
858,67	23280,40
859,10	19995,60
859,54	20906,60
859,98	21208,20
860,42	21640,40
860,86	22085,60
861,30	22468,00
861,74	21224,40
862,17	21732,20
862,61	22013,80
863,05	21199,40
863,49	21443,20
863,93	22621,20
864,37	21221,40
864,80	21767,80
865,24	21780,80
865,68	20704,40
866,12	21844,60
866,56	20582,00
867,00	22833,60
867,43	21158,20
867,87	22499,00
868,31	21943,40
868,75	21700,00
869,19	22516,00
869,62	22156,40
870,06	23963,00
870,50	25210,80
870,94	21024,20
871,38	21977,40
871,81	22175,80
872,25	21449,20
872,69	22585,20
873,13	22929,00
873,56	22219,40
874,00	23673,00
874,44	23377,80
874,88	22292,40
875,31	21572,80
875,75	23910,60
876,19	20977,60
876,63	23120,40
877,06	22319,80
877,50	22366,60
877,94	22454,20
878,38	22383,00
878,81	22637,60
879,25	22100,20
879,69	24242,60
880,13	21428,40
880,56	21217,00
881,00	21765,00
881,44	22423,00
881,87	23163,20
882,31	22040,20
882,75	22090,60
883,19	21909,60
883,62	21902,60
884,06	21166,80
884,50	22770,40
884,93	22252,80
885,37	22518,60
885,81	22886,60
886,24	21603,60
886,68	21172,00
887,12	23888,00
887,55	20912,60
887,99	20795,60
888,43	21488,40
888,86	21238,80
889,30	24956,60
889,74	20467,80
890,17	22543,20
890,61	21037,20
891,05	22190,20
891,48	22194,00
891,92	20326,20
892,36	20853,40
892,79	21211,80
893,23	20498,60
893,67	21052,20
894,10	21862,60
894,54	21128,80
894,97	22237,60
895,41	21003,00
895,85	20426,80
896,28	21463,40
896,72	21639,60
897,16	20584,00
897,59	20090,40
898,03	20403,40
898,46	21633,00
898,90	22700,20
899,34	20577,20
899,77	20464,00
900,21	20737,00
900,64	22336,00
901,08	21724,60
901,51	20824,00
901,95	23398,40
902,39	23474,80
902,82	20553,20
903,26	20766,20
903,69	23165,00
904,13	20379,40
904,56	21633,20
905,00	20508,60
905,43	20716,20
905,87	20003,00
906,31	22480,40
906,74	21133,40
907,18	22356,60
907,61	21477,80
908,05	21032,20
908,48	21872,40
908,92	22963,40
909,35	21030,80
909,79	19811,60
910,22	21479,80
910,66	21675,40
911,09	20688,00
911,53	20370,60
911,96	20746,20
912,40	21301,40
912,83	20716,00
913,27	21634,80
913,70	21563,40
914,14	20965,00
914,57	19993,60
915,01	20168,20
915,44	20755,80
915,88	20472,60
916,31	21962,40
916,75	20567,80
917,18	22211,20
917,62	20625,20
918,05	22034,00
918,49	20397,00
918,92	20892,20
919,35	20810,20
919,79	21655,00
920,22	21900,60
920,66	21073,20
921,09	23026,40
921,53	21539,20
921,96	20706,60
922,40	20170,40
922,83	20142,00
923,26	21341,20
923,70	22866,40
924,13	21867,60
924,57	19653,20
925,00	21536,60
925,44	20307,20
925,87	21928,40
926,30	23699,80
926,74	20758,20
927,17	21738,80
927,61	19903,60
928,04	23694,60
928,47	21087,40
928,91	20048,20
929,34	22215,20
929,77	20580,40
930,21	21432,20
930,64	22060,40
931,08	20330,20
931,51	21610,00
931,94	19472,80
932,38	23080,20
932,81	22130,60
933,24	24276,60
933,68	20915,20
934,11	22249,00
934,54	22092,00
934,98	21856,80
935,41	21355,40
935,84	19966,40
936,28	20766,20
936,71	20167,40
937,14	21412,20
937,58	20065,20
938,01	21669,60
938,44	20542,40
938,88	20619,80
939,31	21690,00
939,74	20117,60
940,18	21040,60
940,61	22041,00
941,04	23421,60
941,48	20389,00
941,91	22200,00
942,34	20052,60
942,77	20536,40
943,21	21727,40
943,64	19853,40
944,07	19667,60
944,51	21688,20
944,94	21481,20
945,37	21549,40
945,80	20996,40
946,24	21253,20
946,67	21277,60
947,10	22385,80
947,53	20719,80
947,97	21112,20
948,40	21547,00
948,83	19692,00
949,26	19850,20
949,70	19932,80
950,13	24081,60
950,56	22437,40
950,99	20520,80
951,43	20432,80
951,86	21371,60
952,29	19732,80
952,72	21885,00
953,15	20452,20
953,59	23237,40
954,02	19825,80
954,45	20372,80
954,88	20610,80
955,31	20377,20
955,75	20628,60
956,18	21528,40
956,61	20051,60
957,04	21640,60
957,47	24294,20
957,91	19939,80
958,34	21550,60
958,77	21240,00
959,20	20663,60
959,63	20395,40
960,06	20287,00
960,50	19270,80
960,93	20513,20
961,36	21586,20
961,79	21579,80
962,22	22099,00
962,65	21701,80
963,09	20387,20
963,52	21122,60
963,95	20540,60
964,38	21044,80
964,81	20760,00
965,24	20350,40
965,67	22048,00
966,10	20402,00
966,54	20836,20
966,97	21563,60
967,40	20286,60
967,83	20441,60
968,26	22120,60
968,69	25867,80
969,12	21774,80
969,55	20791,60
969,98	21469,40
970,42	20060,60
970,85	20416,80
971,28	21459,60
971,71	20463,20
972,14	20922,40
972,57	19872,40
973,00	20286,60
973,43	20494,00
973,86	21427,60
974,29	20663,80
974,72	21772,40
975,15	21184,80
975,58	20212,80
976,01	20288,20
976,45	20158,60
976,88	21058,00
977,31	19878,60
977,74	21705,00
978,17	20950,40
978,60	20587,00
979,03	20582,80
979,46	20540,40
979,89	21944,60
980,32	21535,80
980,75	20378,60
981,18	21185,80
981,61	22047,80
982,04	20841,00
982,47	20836,40
982,90	20375,40
983,33	20582,20
983,76	20182,60
984,19	22046,60
984,62	21706,40
985,05	19950,80
985,48	19239,40
985,91	20689,40
986,34	21723,20
986,77	20432,80
987,20	20033,40
987,63	21196,00
988,06	20683,20
988,49	21089,20
988,92	20721,20
989,35	21079,00
989,78	20711,40
990,20	20565,60
990,63	21242,00
991,06	20773,60
991,49	21254,00
991,92	22867,00
992,35	20491,00
992,78	19991,80
993,21	20701,80
993,64	20109,60
994,07	20333,60
994,50	21345,00
994,93	21604,00
995,36	21151,80
995,79	20951,00
996,21	19474,40
996,64	19792,60
997,07	19070,40
997,50	22013,60
997,93	21674,80
998,36	20379,60
998,79	20981,00
999,22	19873,60
999,65	22521,40
1000,07	20687,60
1000,50	20936,40
1000,93	22268,40
1001,36	19998,00
1001,79	21100,20
1002,22	21396,20
1002,65	20726,20
1003,08	21203,20
1003,50	20859,40
1003,93	21376,80
1004,36	19903,20
1004,79	21245,00
1005,22	20819,60
1005,65	22372,00
1006,07	20507,80
1006,50	19685,60
1006,93	21244,60
1007,36	20754,00
1007,79	20140,20
1008,22	19554,40
1008,64	20525,80
1009,07	20261,20
1009,50	25240,60
1009,93	22103,60
1010,36	21825,60
1010,78	21205,00
1011,21	21463,00
1011,64	22011,00
1012,07	20623,80
1012,50	21513,40
1012,92	20744,80
1013,35	21176,40
1013,78	21347,20
1014,21	19803,60
1014,64	22460,40
1015,06	19529,80
1015,49	21788,20
1015,92	20089,80
1016,35	20904,60
1016,77	19862,60
1017,20	21387,20
1017,63	20414,40
1018,06	36795,00
1018,48	20613,20
1018,91	19381,40
1019,34	24217,40
1019,77	22119,20
1020,19	21660,20
1020,62	20477,80
1021,05	20771,00
1021,47	21167,80
1021,90	21207,20
1022,33	21398,60
1022,76	20846,60
1023,18	25272,60
1023,61	22126,60
1024,04	21907,40
1024,46	21564,80
1024,89	21108,80
1025,32	21259,60
1025,75	21893,80
1026,17	20124,00
1026,60	20031,80
1027,03	23620,40
1027,45	21616,60
1027,88	21353,40
1028,31	20951,40
1028,73	21149,20
1029,16	20209,00
1029,59	23624,40
1030,01	21040,40
1030,44	20905,20
1030,87	21212,60
1031,29	22536,60
1031,72	19711,00
1032,15	21187,80
1032,57	21700,20
1033,00	20481,00
1033,42	21960,00
1033,85	20041,60
1034,28	20098,00
1034,70	21357,00
1035,13	21799,00
1035,56	20497,80
1035,98	22959,80
1036,41	20389,60
1036,83	20603,20
1037,26	21036,00
1037,69	19564,80
1038,11	21730,80
1038,54	21939,80
1038,96	21708,80
1039,39	22150,40
1039,82	22801,40
1040,24	20673,60
1040,67	20597,60
1041,09	21304,00
1041,52	20391,20
1041,95	22606,40
1042,37	22311,80
1042,80	21586,40
1043,22	22112,60
1043,65	21001,60
1044,07	21989,80
1044,50	20063,80
1044,92	20716,60
1045,35	20616,60
1045,78	19753,40
1046,20	20841,00
1046,63	21694,80
1047,05	20150,80
1047,48	21384,20
1047,90	21781,00
1048,33	20153,60
1048,75	22008,80
1049,18	21626,40
1049,60	21783,80
1050,03	20642,80
1050,45	20741,00
1050,88	21509,60
1051,30	22051,80
1051,73	23041,20
1052,15	22300,40
1052,58	21174,00
1053,00	21413,60
1053,43	19050,00
1053,85	21015,80
1054,28	19281,00
1054,70	20604,40
1055,13	20208,20
1055,55	21265,20
1055,98	21545,00
1056,40	23218,40
1056,83	22136,20
1057,25	22144,80
1057,68	21062,40
1058,10	25518,60
1058,52	20242,00
1058,95	21438,20
1059,37	21562,20
1059,80	20508,60
1060,22	20686,60
1060,65	20363,40
1061,07	21965,60
1061,50	20993,40
1061,92	20536,20
1062,34	21870,40
1062,77	22281,40
1063,19	21256,20
1063,62	20761,80
1064,04	20311,80
1064,46	21758,40
1064,89	21997,00
1065,31	20603,00
1065,74	20123,00
1066,16	19614,00
1066,58	21976,20
1067,01	20861,20
1067,43	20886,80
1067,86	21190,40
1068,28	20444,40
1068,70	22900,20
1069,13	21018,80
1069,55	20441,80
1069,97	19637,40
1070,40	21925,60
1070,82	22162,60
1071,25	21983,80
1071,67	20583,20
1072,09	21624,60
1072,52	20498,80
1072,94	19828,20
1073,36	19592,00
1073,79	21687,40
1074,21	20444,40
1074,63	19680,20
1075,06	20355,20
1075,48	20374,80
1075,90	21140,80
1076,33	20152,20
1076,75	20075,40
1077,17	20619,60
1077,59	21821,00
1078,02	20497,60
1078,44	21749,20
1078,86	22600,20
1079,29	19029,20
1079,71	21130,40
1080,13	20441,40
1080,56	20675,60
1080,98	21356,40
1081,40	20872,20
1081,82	20478,80
1082,25	21218,40
1082,67	20786,00
1083,09	20718,40
1083,51	20840,80
1083,94	20914,40
1084,36	21964,80
1084,78	20834,00
1085,21	20497,20
1085,63	22377,80
1086,05	20063,80
1086,47	20394,80
1086,89	21280,20
1087,32	19402,00
1087,74	21609,00
1088,16	39612,00
1088,58	21499,60
1089,01	20174,40
1089,43	20277,60
1089,85	20517,80
1090,27	22111,80
1090,69	20876,80
1091,12	19950,00
1091,54	20441,20
1091,96	20493,20
1092,38	20096,60
1092,80	20797,40
1093,23	20313,80
1093,65	20758,00
1094,07	20568,60
1094,49	20662,00
1094,91	20616,00
1095,34	20726,20
1095,76	20201,40
1096,18	20774,00
1096,60	21182,00
1097,02	19644,40
1097,44	20715,80
1097,87	20129,80
1098,29	21323,80
1098,71	21427,00
1099,13	21151,20
1099,55	20600,80
1099,97	20360,20
1100,39	20028,00
1100,82	20371,40
1101,24	20312,40
1101,66	20681,40
1102,08	19667,20
1102,50	20081,00
1102,92	20420,80
1103,34	20609,60
1103,76	21045,20
1104,19	30604,40
1104,61	22387,00
1105,03	18738,20
1105,45	20772,80
1105,87	20430,20
1106,29	19876,80
1106,71	20422,80
1107,13	18718,80
1107,55	19213,80
1107,97	21586,00
1108,39	19083,20
1108,82	21048,80
1109,24	20912,20
1109,66	20850,80
1110,08	18924,40
1110,50	20008,80
1110,92	19032,00
1111,34	19827,20
1111,76	19137,60
1112,18	19349,00
1112,60	18797,40
1113,02	19952,00
1113,44	19332,80
1113,86	19188,40
1114,28	20237,40
1114,70	20674,80
1115,12	19541,60
1115,54	20052,20
1115,96	19627,40
1116,38	20498,00
1116,80	20268,00
1117,22	19500,00
1117,64	18820,80
1118,06	1830,40
1118,48	2237,80
1118,90	2201,20
1119,32	2199,20
>>>>>End Processed Spectral Data<<<<<
