SpectraSuite Data File
++++++++++++++++++++++++++++++++++++
Date: Wed Oct 15 10:12:17 EEST 2014
User: OO Maya
Dark Spectrum Present: No
Reference Spectrum Present: No
Number of Sampled Component Spectra: 1
Spectrometers: MAYP11278
Integration Time (usec): 500000 (MAYP11278)
Spectra Averaged: 5 (MAYP11278)
Boxcar Smoothing: 0 (MAYP11278)
Correct for Electrical Dark: No (MAYP11278)
Strobe/Lamp Enabled: No (MAYP11278)
Correct for Detector Non-linearity: No (MAYP11278)
Correct for Stray Light: No (MAYP11278)
Number of Pixels in Processed Spectrum: 2068
>>>>>Begin Processed Spectral Data<<<<<
188,14	2312,80
188,62	2227,60
189,09	2197,40
189,57	2198,00
190,05	3018,00
190,53	3074,00
191,01	3098,00
191,49	3135,20
191,97	3190,40
192,44	3150,80
192,92	3136,40
193,40	3097,00
193,88	3155,40
194,36	3130,80
194,84	3161,40
195,31	3134,80
195,79	3187,40
196,27	3126,60
196,75	3132,20
197,23	3279,80
197,70	3134,80
198,18	3107,20
198,66	3146,00
199,14	3104,20
199,62	3167,40
200,09	3194,60
200,57	3136,20
201,05	3140,00
201,53	3195,40
202,01	3182,00
202,48	3187,40
202,96	3093,00
203,44	3173,20
203,92	3098,80
204,40	3196,80
204,87	3216,00
205,35	3124,20
205,83	3128,40
206,31	3228,80
206,78	3139,60
207,26	3168,00
207,74	3280,60
208,22	3155,40
208,69	3187,80
209,17	3125,60
209,65	3204,00
210,13	3183,40
210,60	3152,40
211,08	3163,60
211,56	3188,60
212,04	3153,80
212,51	3130,80
212,99	3257,20
213,47	3186,20
213,95	3136,00
214,42	3248,80
214,90	3180,20
215,38	3251,00
215,85	3184,00
216,33	3200,20
216,81	3200,00
217,29	3179,40
217,76	3132,40
218,24	3171,40
218,72	3222,40
219,19	3090,60
219,67	3137,40
220,15	3140,20
220,62	3152,20
221,10	3291,80
221,58	3138,80
222,05	3199,20
222,53	3146,80
223,01	3207,20
223,49	3146,80
223,96	3215,20
224,44	3172,60
224,92	3144,20
225,39	3132,40
225,87	3152,60
226,35	3128,80
226,82	3164,20
227,30	3236,40
227,77	3154,20
228,25	3203,00
228,73	3204,20
229,20	3197,60
229,68	3167,00
230,16	3185,00
230,63	3159,40
231,11	3194,80
231,59	3232,40
232,06	3170,00
232,54	3171,80
233,02	3130,20
233,49	3160,00
233,97	3196,40
234,44	3345,80
234,92	3175,40
235,40	3152,80
235,87	3143,80
236,35	3124,40
236,82	3227,80
237,30	3287,20
237,78	3143,40
238,25	3194,40
238,73	3175,60
239,20	3183,20
239,68	3157,80
240,16	3124,80
240,63	3206,20
241,11	3254,40
241,58	3188,60
242,06	3155,80
242,53	3245,00
243,01	3233,80
243,49	3121,60
243,96	3141,40
244,44	3224,00
244,91	3258,80
245,39	3168,40
245,86	3243,20
246,34	5168,40
246,82	3106,20
247,29	3195,20
247,77	3182,40
248,24	3199,80
248,72	3201,00
249,19	3101,60
249,67	3184,20
250,14	3220,60
250,62	3206,40
251,09	3256,20
251,57	3189,20
252,04	3295,20
252,52	3262,80
253,00	3159,40
253,47	3256,80
253,95	3183,80
254,42	3166,20
254,90	3216,80
255,37	3212,60
255,85	3232,20
256,32	3166,40
256,80	3206,80
257,27	3209,00
257,75	3229,40
258,22	3347,40
258,70	3197,00
259,17	3169,80
259,65	3213,60
260,12	3236,00
260,59	3286,80
261,07	3186,00
261,54	3177,00
262,02	3265,80
262,49	3146,20
262,97	3208,60
263,44	3187,20
263,92	3145,20
264,39	3242,20
264,87	3254,80
265,34	3176,20
265,82	3212,80
266,29	3211,00
266,76	3231,40
267,24	3182,20
267,71	3196,20
268,19	3208,60
268,66	3232,60
269,14	3133,60
269,61	3160,60
270,09	3173,40
270,56	3230,80
271,03	3256,40
271,51	3184,80
271,98	3201,80
272,46	3145,00
272,93	3147,00
273,40	3113,20
273,88	3201,40
274,35	3383,80
274,83	3253,80
275,30	3225,60
275,78	3178,00
276,25	3194,80
276,72	3251,20
277,20	3227,20
277,67	3149,40
278,14	3198,60
278,62	3150,00
279,09	3406,80
279,57	3183,60
280,04	3180,00
280,51	3403,20
280,99	3261,20
281,46	3366,60
281,93	3192,00
282,41	3261,80
282,88	3203,20
283,36	3206,40
283,83	3206,00
284,30	3163,80
284,78	3158,60
285,25	3252,60
285,72	3197,20
286,20	3219,60
286,67	3230,00
287,14	3130,20
287,62	3248,00
288,09	3293,20
288,56	3208,40
289,04	3241,40
289,51	3129,60
289,98	3283,00
290,46	3189,40
290,93	3228,80
291,40	3180,40
291,88	3242,20
292,35	3344,20
292,82	3173,00
293,29	3263,60
293,77	3177,20
294,24	3247,00
294,71	3225,00
295,19	3185,80
295,66	3233,40
296,13	3231,60
296,61	3322,20
297,08	3305,40
297,55	3257,60
298,02	3252,80
298,50	3250,40
298,97	3198,60
299,44	3308,60
299,91	3199,20
300,39	3242,20
300,86	3184,20
301,33	3276,60
301,81	3270,20
302,28	3255,40
302,75	3185,80
303,22	3266,40
303,70	3274,00
304,17	3202,80
304,64	3191,20
305,11	3176,60
305,58	3258,80
306,06	3252,80
306,53	3243,40
307,00	3247,40
307,47	3188,00
307,95	3191,80
308,42	3217,80
308,89	3198,60
309,36	3260,00
309,83	3277,20
310,31	3260,60
310,78	3254,60
311,25	3260,60
311,72	3219,40
312,20	3288,60
312,67	3242,20
313,14	3344,40
313,61	3202,00
314,08	3219,80
314,56	3241,00
315,03	3206,60
315,50	3202,00
315,97	3277,80
316,44	3248,80
316,91	3246,80
317,39	3274,40
317,86	3256,40
318,33	3394,00
318,80	3245,40
319,27	3235,20
319,74	3181,40
320,22	3283,00
320,69	3334,20
321,16	3286,00
321,63	3250,40
322,10	3181,20
322,57	3205,60
323,04	3351,40
323,52	3243,20
323,99	3394,00
324,46	3191,80
324,93	3270,80
325,40	3255,20
325,87	3252,20
326,34	3258,40
326,82	3271,00
327,29	3320,60
327,76	3323,60
328,23	3316,00
328,70	3302,60
329,17	3267,60
329,64	3259,00
330,11	3264,40
330,58	3247,00
331,05	3328,20
331,53	3299,00
332,00	3393,60
332,47	3240,20
332,94	3416,20
333,41	3353,20
333,88	3355,20
334,35	3390,60
334,82	3322,20
335,29	3353,20
335,76	3527,80
336,23	3261,00
336,70	3321,60
337,18	3294,40
337,65	3335,80
338,12	3290,20
338,59	3304,60
339,06	3400,00
339,53	3358,40
340,00	3261,00
340,47	3253,60
340,94	3251,80
341,41	3330,60
341,88	3369,00
342,35	3280,20
342,82	3310,00
343,29	3346,80
343,76	3321,00
344,23	3288,80
344,70	3299,00
345,17	3257,80
345,64	3299,20
346,11	3329,80
346,58	3269,80
347,05	3260,60
347,52	3380,20
347,99	3270,00
348,46	3347,00
348,93	3299,60
349,40	3219,20
349,87	3303,60
350,34	3335,60
350,81	3298,40
351,28	3268,40
351,75	3315,60
352,22	3391,20
352,69	3299,00
353,16	3284,80
353,63	3316,60
354,10	3317,20
354,57	3305,20
355,04	3331,80
355,51	3316,80
355,98	3388,00
356,45	3272,80
356,92	3399,40
357,39	3275,40
357,86	3420,60
358,33	3363,60
358,80	3251,00
359,27	3273,20
359,74	3296,60
360,21	3310,80
360,68	3371,60
361,14	3416,40
361,61	3316,00
362,08	3322,40
362,55	3330,00
363,02	3310,20
363,49	3343,80
363,96	3465,00
364,43	3347,00
364,90	3313,00
365,37	3378,00
365,84	3325,60
366,31	3310,80
366,77	3355,80
367,24	3361,40
367,71	4204,60
368,18	3281,00
368,65	3320,00
369,12	3426,80
369,59	3319,80
370,06	3424,40
370,53	3372,40
370,99	3340,20
371,46	4055,80
371,93	3373,00
372,40	3341,60
372,87	3296,40
373,34	3364,80
373,81	3397,80
374,27	3338,40
374,74	3356,60
375,21	3423,80
375,68	3342,60
376,15	3509,00
376,62	3388,60
377,09	3366,80
377,55	3362,80
378,02	3435,20
378,49	3405,00
378,96	3406,40
379,43	3427,00
379,90	3434,40
380,36	3455,80
380,83	3529,00
381,30	3453,60
381,77	3527,00
382,24	3518,60
382,71	3387,60
383,17	3458,20
383,64	3451,20
384,11	3508,40
384,58	3490,80
385,05	3766,40
385,51	3469,20
385,98	3478,80
386,45	3494,80
386,92	3598,00
387,39	3458,60
387,85	3444,60
388,32	3558,20
388,79	3524,60
389,26	3598,00
389,72	3487,40
390,19	3578,00
390,66	3554,00
391,13	3559,00
391,59	3577,20
392,06	3571,00
392,53	3584,20
393,00	3572,60
393,46	3574,40
393,93	3712,00
394,40	3590,40
394,87	3656,40
395,33	3561,80
395,80	3641,60
396,27	3859,60
396,74	3573,20
397,20	3662,80
397,67	3656,80
398,14	3592,80
398,61	3638,20
399,07	3614,20
399,54	3616,00
400,01	3727,00
400,47	3638,00
400,94	3689,40
401,41	3668,00
401,88	3714,40
402,34	3729,20
402,81	3733,00
403,28	3713,00
403,74	3858,80
404,21	3803,40
404,68	3983,60
405,14	3972,80
405,61	3835,80
406,08	3728,40
406,54	3828,40
407,01	3817,80
407,48	3936,20
407,95	3833,40
408,41	3831,60
408,88	3854,40
409,35	3772,40
409,81	3894,80
410,28	3794,40
410,74	3925,40
411,21	3814,80
411,68	3953,60
412,14	3842,60
412,61	3806,80
413,08	3916,60
413,54	3900,60
414,01	3943,40
414,48	3967,40
414,94	4037,00
415,41	3931,40
415,88	4036,60
416,34	3969,60
416,81	3996,00
417,27	4074,40
417,74	4022,40
418,21	4007,80
418,67	4041,20
419,14	4031,40
419,60	4059,00
420,07	4020,20
420,54	4081,60
421,00	4014,80
421,47	4078,40
421,93	4039,80
422,40	4132,60
422,87	4091,80
423,33	4119,60
423,80	4152,20
424,26	4206,60
424,73	4159,60
425,19	4226,60
425,66	4179,40
426,13	4290,00
426,59	4208,40
427,06	4291,80
427,52	4267,80
427,99	4301,80
428,45	4208,20
428,92	4337,60
429,38	4312,20
429,85	4313,40
430,32	4353,20
430,78	4523,20
431,25	4301,00
431,71	4341,00
432,18	4474,20
432,64	4478,00
433,11	4429,00
433,57	4411,00
434,04	4499,40
434,50	4555,80
434,97	4703,80
435,43	4680,20
435,90	4963,40
436,36	4771,80
436,83	4526,20
437,29	4626,40
437,76	4604,80
438,22	4627,00
438,69	4590,00
439,15	4617,00
439,62	4870,60
440,08	4671,20
440,55	4714,00
441,01	4759,60
441,48	4663,60
441,94	4723,20
442,41	4879,60
442,87	4685,40
443,34	4792,40
443,80	4797,20
444,27	4734,20
444,73	4944,00
445,20	4845,00
445,66	4857,40
446,12	4873,20
446,59	4883,20
447,05	4903,40
447,52	4904,40
447,98	4899,40
448,45	4900,20
448,91	4993,80
449,38	5005,80
449,84	4987,00
450,30	4963,40
450,77	4995,20
451,23	5043,40
451,70	5070,60
452,16	5116,20
452,63	5067,40
453,09	5186,20
453,55	5168,20
454,02	5181,40
454,48	5189,60
454,95	5221,80
455,41	5218,00
455,87	5234,60
456,34	5340,80
456,80	5251,80
457,27	5407,20
457,73	5320,20
458,19	5321,40
458,66	5318,40
459,12	5398,60
459,58	5389,40
460,05	5427,20
460,51	5435,00
460,98	5422,40
461,44	5574,00
461,90	5563,60
462,37	5498,80
462,83	5484,60
463,29	5638,60
463,76	5583,60
464,22	5663,40
464,68	5669,20
465,15	5624,40
465,61	5669,00
466,07	5756,80
466,54	5710,20
467,00	5808,80
467,46	5802,20
467,93	5776,60
468,39	5865,00
468,85	5865,40
469,32	5852,20
469,78	5888,40
470,24	5970,00
470,71	5959,00
471,17	5953,00
471,63	5992,80
472,10	6008,60
472,56	6018,80
473,02	6052,00
473,48	6172,80
473,95	6126,20
474,41	6132,20
474,87	6151,40
475,34	6168,00
475,80	6267,00
476,26	6248,00
476,72	6295,20
477,19	6277,60
477,65	6336,80
478,11	6428,80
478,58	6399,00
479,04	6474,40
479,50	6398,80
479,96	6575,40
480,43	6516,20
480,89	6525,60
481,35	6525,00
481,81	6587,00
482,28	6630,40
482,74	6595,40
483,20	6658,80
483,66	6647,00
484,13	6694,00
484,59	6883,20
485,05	6805,60
485,51	6818,60
485,97	6826,40
486,44	6890,00
486,90	6851,40
487,36	6963,60
487,82	6934,20
488,29	6981,00
488,75	7025,00
489,21	7060,80
489,67	7132,40
490,13	7231,40
490,60	7128,80
491,06	7202,00
491,52	7179,80
491,98	7244,60
492,44	7235,20
492,90	7365,40
493,37	7394,20
493,83	7381,60
494,29	7383,40
494,75	7398,00
495,21	7446,80
495,67	7465,60
496,14	7546,00
496,60	7513,80
497,06	7616,20
497,52	7695,60
497,98	7731,20
498,44	7684,80
498,91	7728,60
499,37	7746,60
499,83	7920,20
500,29	7819,20
500,75	7823,80
501,21	7917,80
501,67	7887,40
502,14	8019,40
502,60	7985,20
503,06	8019,40
503,52	8066,40
503,98	8101,40
504,44	8097,60
504,90	8193,40
505,36	8223,60
505,82	8210,40
506,29	8296,80
506,75	8328,00
507,21	8318,40
507,67	8461,00
508,13	8401,80
508,59	8408,80
509,05	8469,80
509,51	8433,20
509,97	8545,20
510,43	8540,40
510,89	8603,60
511,35	8749,80
511,82	8760,40
512,28	8749,20
512,74	8698,60
513,20	8735,00
513,66	8903,60
514,12	8846,00
514,58	8978,00
515,04	9061,80
515,50	8949,80
515,96	9111,20
516,42	9153,80
516,88	9185,80
517,34	9311,60
517,80	9264,20
518,26	9271,60
518,72	9535,00
519,18	9383,60
519,64	9370,40
520,10	9424,40
520,56	9455,20
521,02	9570,00
521,48	9631,00
521,94	9712,00
522,40	9727,00
522,86	9719,80
523,32	9919,00
523,78	9928,20
524,24	9880,60
524,70	10104,00
525,16	10058,00
525,62	10090,80
526,08	10142,40
526,54	10121,20
527,00	10184,20
527,46	10222,80
527,92	10259,40
528,38	10361,60
528,84	10402,80
529,30	10399,60
529,76	10394,20
530,22	10534,40
530,68	10566,00
531,14	10528,00
531,60	10721,20
532,06	10654,40
532,52	10748,00
532,98	10829,40
533,44	10843,60
533,90	10870,60
534,36	10888,80
534,82	10938,40
535,28	10988,00
535,73	11040,80
536,19	11083,00
536,65	11253,80
537,11	11177,80
537,57	11266,80
538,03	11332,00
538,49	11409,40
538,95	11563,80
539,41	11557,80
539,87	11889,20
540,33	11568,20
540,79	11807,60
541,24	11877,20
541,70	11874,60
542,16	12106,00
542,62	12168,80
543,08	12158,00
543,54	12442,80
544,00	12256,60
544,46	12428,80
544,91	12405,80
545,37	12655,40
545,83	13028,20
546,29	13016,00
546,75	12531,00
547,21	12431,80
547,67	12424,00
548,13	12423,80
548,58	12527,80
549,04	12525,80
549,50	12596,20
549,96	12808,60
550,42	12681,00
550,88	12650,20
551,33	12860,20
551,79	12872,00
552,25	13010,40
552,71	12982,20
553,17	12967,60
553,63	13043,00
554,08	13047,20
554,54	13049,20
555,00	13145,00
555,46	13207,00
555,92	13375,20
556,37	13366,00
556,83	13515,40
557,29	13316,20
557,75	13589,20
558,21	13609,00
558,66	13564,80
559,12	13661,40
559,58	13640,00
560,04	13708,40
560,50	13778,80
560,95	13858,80
561,41	13872,40
561,87	13936,00
562,33	13972,20
562,78	14096,40
563,24	14109,00
563,70	14251,00
564,16	14146,40
564,61	14307,60
565,07	14335,20
565,53	14406,60
565,99	14461,00
566,44	14594,60
566,90	14566,80
567,36	14566,40
567,82	14670,60
568,27	14749,40
568,73	14827,60
569,19	14808,20
569,65	14955,40
570,10	14914,20
570,56	14993,80
571,02	15107,40
571,47	15150,40
571,93	15173,60
572,39	15233,80
572,85	15325,40
573,30	15320,00
573,76	15380,60
574,22	15440,60
574,67	15547,80
575,13	15599,40
575,59	15576,00
576,04	15752,80
576,50	15739,40
576,96	16008,60
577,42	15961,60
577,87	15954,40
578,33	15990,40
578,79	16232,60
579,24	16192,00
579,70	16234,00
580,16	16304,40
580,61	16358,80
581,07	16425,40
581,53	16485,00
581,98	16544,20
582,44	16591,60
582,89	16539,60
583,35	16752,20
583,81	16780,40
584,26	16817,20
584,72	16947,40
585,18	16903,60
585,63	17101,20
586,09	17001,20
586,55	17047,00
587,00	17191,20
587,46	17260,00
587,91	17422,20
588,37	17336,80
588,83	17382,40
589,28	17419,60
589,74	17439,00
590,19	17564,60
590,65	17626,20
591,11	17625,40
591,56	17644,40
592,02	17858,00
592,47	17847,80
592,93	17945,20
593,39	17994,20
593,84	18073,00
594,30	18031,40
594,75	18095,20
595,21	18170,80
595,66	18117,20
596,12	18271,60
596,58	18320,20
597,03	18429,00
597,49	18472,60
597,94	18475,40
598,40	18485,60
598,85	18574,20
599,31	18804,20
599,76	18770,20
600,22	18868,80
600,67	18957,40
601,13	18976,80
601,59	19040,20
602,04	19014,20
602,50	19294,40
602,95	19189,00
603,41	19201,00
603,86	19222,00
604,32	19250,20
604,77	19385,80
605,23	19444,00
605,68	19533,60
606,14	19562,80
606,59	19542,20
607,05	19682,20
607,50	19655,80
607,96	19702,60
608,41	19859,60
608,87	19944,80
609,32	20113,80
609,78	20184,00
610,23	20395,00
610,69	20611,40
611,14	21083,80
611,60	21073,60
612,05	20964,00
612,50	20880,20
612,96	20755,40
613,41	20962,20
613,87	20812,60
614,32	20882,20
614,78	20921,80
615,23	21040,40
615,69	21116,80
616,14	21114,60
616,59	21129,60
617,05	21249,40
617,50	21307,00
617,96	21457,00
618,41	21407,80
618,87	21491,80
619,32	21551,80
619,77	21743,00
620,23	21762,00
620,68	21940,60
621,14	22013,80
621,59	21980,80
622,05	22160,40
622,50	22220,80
622,95	22238,80
623,41	22275,00
623,86	22362,40
624,32	22486,40
624,77	22385,20
625,22	22553,00
625,68	22653,20
626,13	22683,60
626,58	22832,20
627,04	22862,80
627,49	22894,60
627,95	23022,60
628,40	23122,20
628,85	23057,60
629,31	23214,40
629,76	23307,00
630,21	23354,80
630,67	23534,20
631,12	23549,20
631,57	23632,00
632,03	23509,40
632,48	23698,00
632,93	23621,40
633,39	23679,40
633,84	23793,40
634,29	23870,20
634,75	23808,60
635,20	23859,00
635,65	23892,20
636,11	23977,40
636,56	24117,20
637,01	24073,00
637,47	24176,40
637,92	24258,00
638,37	24353,60
638,83	24342,20
639,28	24454,60
639,73	24343,20
640,18	24476,80
640,64	24656,60
641,09	24722,20
641,54	24682,40
642,00	24706,40
642,45	24803,00
642,90	24880,20
643,35	24968,80
643,81	25059,80
644,26	24991,80
644,71	25136,40
645,17	25137,00
645,62	25237,80
646,07	25305,40
646,52	25367,80
646,98	25480,00
647,43	25577,00
647,88	25546,40
648,33	25612,40
648,79	25605,40
649,24	25777,40
649,69	25838,60
650,14	26185,60
650,59	25915,60
651,05	25989,00
651,50	25981,80
651,95	26061,60
652,40	26017,20
652,86	26191,80
653,31	26173,20
653,76	26276,00
654,21	26374,40
654,66	26440,20
655,12	26420,80
655,57	26410,40
656,02	26544,20
656,47	26633,60
656,92	26718,40
657,38	26705,20
657,83	26808,60
658,28	26853,40
658,73	26906,80
659,18	26893,40
659,63	27243,20
660,09	27032,00
660,54	27142,20
660,99	27183,20
661,44	27251,60
661,89	27213,80
662,34	27277,80
662,80	27233,80
663,25	27374,80
663,70	27444,60
664,15	27553,20
664,60	27569,20
665,05	27642,20
665,50	27674,20
665,96	27648,00
666,41	27824,20
666,86	27827,80
667,31	28001,80
667,76	28037,40
668,21	27995,40
668,66	28103,60
669,11	28144,60
669,56	28285,60
670,02	28130,60
670,47	28220,00
670,92	28383,80
671,37	28560,40
671,82	28589,00
672,27	28702,40
672,72	28652,40
673,17	28660,60
673,62	28752,20
674,07	28848,00
674,52	28745,20
674,98	28787,60
675,43	28830,40
675,88	28988,00
676,33	29108,00
676,78	29147,20
677,23	29149,80
677,68	29026,40
678,13	29322,00
678,58	29196,40
679,03	29283,00
679,48	29372,80
679,93	29461,80
680,38	29521,20
680,83	29521,60
681,28	29497,20
681,73	29460,40
682,18	29502,60
682,63	29586,20
683,08	29810,20
683,53	29903,80
683,98	29933,40
684,43	29957,80
684,89	30024,00
685,34	29953,60
685,79	29998,80
686,24	30035,80
686,69	30073,00
687,14	30232,20
687,59	30262,80
688,04	30333,00
688,49	30316,60
688,93	30482,00
689,38	30457,20
689,83	30355,20
690,28	30450,80
690,73	30437,40
691,18	30476,00
691,63	30485,20
692,08	30389,40
692,53	30605,80
692,98	30586,60
693,43	30815,80
693,88	30949,80
694,33	30967,00
694,78	31138,40
695,23	31484,40
695,68	31244,40
696,13	31252,60
696,58	31332,40
697,03	31216,00
697,48	31196,60
697,93	31318,20
698,38	31223,20
698,82	31398,60
699,27	31459,60
699,72	31585,60
700,17	31687,00
700,62	31742,00
701,07	31767,60
701,52	31876,20
701,97	31557,00
702,42	31690,00
702,87	31639,40
703,32	31841,60
703,76	31983,40
704,21	32062,60
704,66	32138,60
705,11	32231,20
705,56	32109,00
706,01	32088,20
706,46	32019,00
706,91	32153,80
707,36	32213,00
707,80	32400,00
708,25	32504,60
708,70	32639,40
709,15	32571,00
709,60	32477,60
710,05	32427,60
710,50	32332,00
710,94	32457,00
711,39	32579,60
711,84	32708,60
712,29	32853,40
712,74	32774,20
713,19	32962,20
713,63	32759,60
714,08	32742,20
714,53	32798,20
714,98	32796,20
715,43	32829,80
715,87	32900,80
716,32	33032,60
716,77	33029,40
717,22	32972,00
717,67	32958,00
718,12	33071,00
718,56	33046,80
719,01	32909,40
719,46	32933,60
719,91	33110,60
720,35	33190,40
720,80	33068,00
721,25	33318,20
721,70	33151,20
722,15	33219,20
722,59	33112,60
723,04	32915,20
723,49	32911,20
723,94	33055,40
724,38	33068,20
724,83	33236,80
725,28	33241,40
725,73	33375,40
726,17	33359,60
726,62	33356,20
727,07	33528,80
727,52	33335,60
727,96	33495,60
728,41	33535,00
728,86	33471,00
729,31	33688,60
729,75	33680,60
730,20	33956,20
730,65	33977,00
731,09	34216,00
731,54	34204,60
731,99	34151,20
732,44	34206,60
732,88	34116,20
733,33	34380,80
733,78	34449,40
734,22	34641,00
734,67	34720,60
735,12	34966,20
735,57	35047,00
736,01	35227,60
736,46	35207,20
736,91	35146,80
737,35	35154,80
737,80	35061,60
738,25	35181,60
738,69	35297,40
739,14	35386,40
739,59	35471,80
740,03	35704,60
740,48	35669,20
740,93	35591,40
741,37	35590,60
741,82	35688,40
742,26	35620,60
742,71	35572,60
743,16	35497,40
743,60	35571,20
744,05	35758,20
744,50	35882,00
744,94	35899,60
745,39	35967,20
745,84	36012,00
746,28	35939,80
746,73	35742,00
747,17	35691,40
747,62	35627,00
748,07	35644,80
748,51	35723,40
748,96	35891,60
749,40	35886,20
749,85	36028,00
750,30	36126,00
750,74	36037,00
751,19	35950,20
751,63	35946,40
752,08	35834,40
752,53	35804,80
752,97	35910,20
753,42	35749,60
753,86	35782,60
754,31	35916,80
754,75	36019,00
755,20	36090,20
755,64	36042,00
756,09	36078,80
756,54	35930,00
756,98	35735,80
757,43	35760,80
757,87	35731,40
758,32	35833,20
758,76	35914,20
759,21	35854,20
759,65	36051,20
760,10	36052,40
760,54	35934,40
760,99	35824,20
761,43	35761,40
761,88	35693,80
762,33	35633,20
762,77	35820,20
763,22	35877,80
763,66	36174,20
764,11	36234,00
764,55	36351,80
765,00	36521,20
765,44	36452,40
765,89	36208,60
766,33	36157,40
766,77	35991,20
767,22	35939,20
767,66	36154,80
768,11	36227,20
768,55	36541,00
769,00	36796,60
769,44	37175,80
769,89	37106,00
770,33	37147,40
770,78	37102,80
771,22	37002,80
771,67	36933,20
772,11	36874,00
772,56	36857,00
773,00	36726,60
773,44	36751,60
773,89	36641,40
774,33	36698,20
774,78	37012,60
775,22	37180,60
775,67	37323,60
776,11	37483,40
776,55	37433,40
777,00	37436,60
777,44	37180,80
777,89	37087,60
778,33	36955,20
778,77	36921,20
779,22	36899,60
779,66	37074,80
780,11	37224,80
780,55	37179,20
780,99	37534,00
781,44	37531,00
781,88	37430,80
782,33	37443,60
782,77	37167,80
783,21	37010,40
783,66	36887,20
784,10	36702,80
784,55	36553,80
784,99	36611,00
785,43	36681,20
785,88	36861,40
786,32	37080,40
786,76	37329,00
787,21	37419,00
787,65	37335,40
788,09	37067,60
788,54	36952,20
788,98	36690,60
789,42	36637,20
789,87	36420,20
790,31	36374,20
790,75	36374,40
791,20	36569,20
791,64	36864,80
792,08	37109,20
792,53	37159,20
792,97	37197,00
793,41	37385,80
793,86	37011,20
794,30	36639,20
794,74	36330,80
795,18	36094,20
795,63	36013,00
796,07	36147,60
796,51	36183,20
796,96	36428,80
797,40	36692,80
797,84	36762,40
798,28	36872,20
798,73	36969,40
799,17	36792,40
799,61	36504,40
800,06	36253,60
800,50	36052,00
800,94	35756,40
801,38	35852,80
801,83	35888,80
802,27	36058,00
802,71	36421,20
803,15	36750,40
803,60	36961,80
804,04	36953,00
804,48	36896,20
804,92	36703,20
805,37	36436,80
805,81	36169,80
806,25	35605,40
806,69	35408,20
807,13	35560,20
807,58	35389,60
808,02	35666,60
808,46	35924,80
808,90	36259,40
809,34	36505,20
809,79	36609,20
810,23	36785,80
810,67	36750,00
811,11	36591,80
811,55	36446,20
812,00	35976,40
812,44	35616,20
812,88	35395,60
813,32	35359,20
813,76	35275,40
814,21	35209,20
814,65	35501,80
815,09	35897,40
815,53	36263,60
815,97	36367,80
816,41	36568,20
816,85	36630,20
817,30	36580,80
817,74	36304,80
818,18	36118,40
818,62	35600,00
819,06	35364,00
819,50	35258,20
819,94	35044,40
820,39	35182,20
820,83	35377,20
821,27	35623,00
821,71	35897,60
822,15	36332,60
822,59	36398,80
823,03	36548,00
823,47	36627,20
823,92	36379,60
824,36	36264,20
824,80	35907,80
825,24	35661,60
825,68	35482,20
826,12	35294,20
826,56	35151,60
827,00	35276,00
827,44	35595,00
827,88	36057,20
828,32	36344,80
828,77	36377,60
829,21	36576,60
829,65	36630,20
830,09	36447,20
830,53	36335,80
830,97	36018,20
831,41	35820,40
831,85	35340,40
832,29	35273,00
832,73	35292,00
833,17	35602,60
833,61	35995,80
834,05	36339,20
834,49	36715,80
834,93	36942,60
835,37	37003,60
835,81	36848,20
836,25	36567,60
836,69	36035,00
837,13	35761,40
837,57	35399,60
838,01	35287,60
838,45	35155,20
838,89	35472,60
839,33	35713,60
839,77	36027,00
840,21	36537,00
840,65	36871,00
841,09	37402,60
841,53	37460,40
841,97	37447,40
842,41	37237,60
842,85	36844,20
843,29	36289,00
843,73	35854,80
844,17	35434,40
844,61	35169,40
845,05	35161,20
845,49	35398,20
845,93	35773,40
846,37	36302,00
846,81	36750,20
847,25	37240,80
847,69	37625,60
848,13	37913,60
848,57	37989,40
849,01	37906,60
849,45	37871,00
849,89	37634,00
850,32	37284,40
850,76	36811,40
851,20	36483,00
851,64	35988,80
852,08	35971,00
852,52	35872,80
852,96	35949,40
853,40	36186,40
853,84	36788,00
854,28	37332,20
854,72	37981,40
855,16	38450,60
855,59	38611,40
856,03	38460,80
856,47	38357,40
856,91	37690,60
857,35	37162,40
857,79	36541,00
858,23	36021,20
858,67	36002,40
859,10	35728,60
859,54	36088,80
859,98	36766,40
860,42	37310,80
860,86	37834,60
861,30	38519,60
861,74	38765,40
862,17	38810,00
862,61	38836,60
863,05	38644,80
863,49	38336,20
863,93	37927,60
864,37	37196,60
864,80	36955,00
865,24	36746,60
865,68	36642,00
866,12	36838,20
866,56	37099,80
867,00	37390,00
867,43	37857,00
867,87	38573,00
868,31	38887,40
868,75	39231,80
869,19	39305,80
869,62	39105,00
870,06	38737,40
870,50	38094,40
870,94	37103,80
871,38	36555,40
871,81	36180,60
872,25	36180,00
872,69	36268,60
873,13	36781,60
873,56	37336,60
874,00	38131,00
874,44	38747,80
874,88	39074,20
875,31	39541,20
875,75	39817,00
876,19	39615,00
876,63	39633,00
877,06	39087,60
877,50	38470,00
877,94	37964,60
878,38	37529,80
878,81	37001,40
879,25	36706,60
879,69	36623,00
880,13	36579,80
880,56	36829,40
881,00	37326,20
881,44	38228,40
881,87	39114,40
882,31	39830,20
882,75	40510,40
883,19	40768,00
883,62	40800,60
884,06	40421,00
884,50	39943,40
884,93	39252,60
885,37	38642,20
885,81	37991,80
886,24	37386,80
886,68	36935,20
887,12	36936,80
887,55	36778,00
887,99	37065,40
888,43	37619,40
888,86	38159,80
889,30	39035,60
889,74	39248,00
890,17	39958,40
890,61	40493,80
891,05	40989,60
891,48	41406,00
891,92	41425,60
892,36	40857,20
892,79	40134,80
893,23	39342,60
893,67	38735,60
894,10	38150,00
894,54	37784,20
894,97	37648,20
895,41	37548,40
895,85	37723,60
896,28	38337,20
896,72	39150,40
897,16	39898,40
897,59	40587,80
898,03	41469,80
898,46	42116,20
898,90	42440,20
899,34	42164,20
899,77	41789,60
900,21	41168,80
900,64	40534,40
901,08	39752,20
901,51	38838,60
901,95	38284,20
902,39	37913,80
902,82	37747,80
903,26	37726,20
903,69	38165,00
904,13	38494,20
904,56	38848,00
905,00	39185,80
905,43	39767,00
905,87	40130,20
906,31	40730,00
906,74	40947,80
907,18	41508,00
907,61	41747,80
908,05	41676,40
908,48	41338,20
908,92	40671,40
909,35	40132,20
909,79	39310,40
910,22	38593,40
910,66	38208,20
911,09	37955,20
911,53	38114,20
911,96	38465,80
912,40	39055,00
912,83	39921,40
913,27	40784,00
913,70	41693,00
914,14	42312,00
914,57	42933,60
915,01	42990,20
915,44	42613,80
915,88	41633,00
916,31	40573,00
916,75	39420,80
917,18	38960,40
917,62	38541,40
918,05	38605,40
918,49	38756,00
918,92	38961,60
919,35	39293,80
919,79	39985,60
920,22	40329,40
920,66	40664,00
921,09	41437,20
921,53	41951,20
921,96	42477,20
922,40	42687,40
922,83	42818,00
923,26	42769,00
923,70	42525,60
924,13	42035,80
924,57	41313,20
925,00	40698,80
925,44	39867,60
925,87	39209,20
926,30	38389,40
926,74	37939,80
927,17	37963,80
927,61	38112,40
928,04	38797,00
928,47	39043,60
928,91	39654,80
929,34	40452,80
929,77	41071,80
930,21	41515,40
930,64	41633,20
931,08	41330,80
931,51	40888,20
931,94	40107,20
932,38	39434,60
932,81	38665,60
933,24	37872,20
933,68	36812,20
934,11	36016,40
934,54	35567,60
934,98	35311,60
935,41	35271,00
935,84	35166,80
936,28	35285,80
936,71	35461,20
937,14	35841,20
937,58	36080,00
938,01	36199,60
938,44	36027,80
938,88	35787,60
939,31	35002,60
939,74	34013,80
940,18	33207,20
940,61	32222,40
941,04	31301,20
941,48	30534,40
941,91	29985,40
942,34	29538,20
942,77	29416,20
943,21	29635,20
943,64	29718,60
944,07	29858,80
944,51	30331,40
944,94	30717,20
945,37	31077,20
945,80	31340,00
946,24	31895,40
946,67	32508,00
947,10	32899,00
947,53	33091,40
947,97	33218,80
948,40	33245,60
948,83	32847,20
949,26	32468,40
949,70	31986,60
950,13	31668,20
950,56	31299,40
950,99	30864,60
951,43	30779,40
951,86	30965,80
952,29	31338,20
952,72	32247,40
953,15	33073,80
953,59	34052,40
954,02	34802,00
954,45	35572,20
954,88	36034,80
955,31	36288,00
955,75	36282,60
956,18	36084,00
956,61	35565,80
957,04	34948,20
957,47	34589,20
957,91	33839,20
958,34	33406,80
958,77	33075,80
959,20	32909,40
959,63	32788,60
960,06	32819,20
960,50	32990,60
960,93	33522,40
961,36	33985,60
961,79	34592,80
962,22	35258,60
962,65	35888,60
963,09	36317,40
963,52	36931,60
963,95	37133,00
964,38	37327,60
964,81	37032,00
965,24	36420,40
965,67	35935,80
966,10	35070,20
966,54	34299,20
966,97	33721,80
967,40	32984,60
967,83	32841,80
968,26	32764,80
968,69	33006,00
969,12	32884,40
969,55	32807,20
969,98	32878,80
970,42	33027,20
970,85	33333,80
971,28	33794,60
971,71	34004,20
972,14	34578,80
972,57	35070,40
973,00	35621,20
973,43	35729,20
973,86	35717,20
974,29	35431,40
974,72	34789,60
975,15	34111,60
975,58	33481,00
976,01	32835,00
976,45	32202,60
976,88	31889,20
977,31	31599,80
977,74	31513,80
978,17	31511,00
978,60	31640,40
979,03	32050,80
979,46	32441,00
979,89	32901,40
980,32	33205,60
980,75	33461,80
981,18	33885,40
981,61	34341,40
982,04	34419,40
982,47	34491,00
982,90	34391,20
983,33	34383,80
983,76	34141,60
984,19	33938,20
984,62	33665,40
985,05	33185,80
985,48	32541,00
985,91	31986,20
986,34	31614,20
986,77	30954,80
987,20	30447,20
987,63	30239,80
988,06	30203,60
988,49	30205,00
988,92	30338,20
989,35	30554,60
989,78	30892,60
990,20	31110,00
990,63	31643,60
991,06	32041,20
991,49	32437,40
991,92	32656,40
992,35	32659,40
992,78	32508,40
993,21	32352,40
993,64	31938,60
994,07	31534,00
994,50	31040,40
994,93	30562,20
995,36	30033,80
995,79	29500,80
996,21	29100,00
996,64	28947,60
997,07	28596,40
997,50	28617,40
997,93	28571,80
998,36	28560,20
998,79	28709,00
999,22	28855,20
999,65	29145,20
1000,07	29329,80
1000,50	29701,20
1000,93	30102,20
1001,36	30166,40
1001,79	30181,20
1002,22	30133,60
1002,65	29852,80
1003,08	29368,40
1003,50	28786,80
1003,93	28266,80
1004,36	27583,40
1004,79	27249,00
1005,22	26738,20
1005,65	26424,60
1006,07	26002,20
1006,50	25823,80
1006,93	25777,00
1007,36	25719,00
1007,79	25704,40
1008,22	25731,60
1008,64	25822,40
1009,07	25920,40
1009,50	26254,40
1009,93	26139,00
1010,36	26155,00
1010,78	26265,60
1011,21	26249,60
1011,64	26275,20
1012,07	26283,20
1012,50	26264,20
1012,92	26015,60
1013,35	25782,20
1013,78	25426,40
1014,21	24840,00
1014,64	24443,40
1015,06	23944,40
1015,49	23627,60
1015,92	23343,20
1016,35	23237,60
1016,77	23313,20
1017,20	23432,00
1017,63	23622,00
1018,06	24765,80
1018,48	24089,80
1018,91	24185,60
1019,34	24594,20
1019,77	24721,00
1020,19	24881,00
1020,62	25068,00
1021,05	25112,40
1021,47	25306,40
1021,90	25490,40
1022,33	25583,00
1022,76	25611,20
1023,18	25814,80
1023,61	25478,60
1024,04	25117,60
1024,46	24876,00
1024,89	24570,40
1025,32	24272,40
1025,75	24136,40
1026,17	23764,80
1026,60	23665,60
1027,03	23707,00
1027,45	23532,00
1027,88	23380,60
1028,31	23437,00
1028,73	23635,00
1029,16	23695,20
1029,59	23968,00
1030,01	24048,60
1030,44	24135,40
1030,87	24173,80
1031,29	24234,80
1031,72	23935,00
1032,15	23851,20
1032,57	23706,00
1033,00	23350,80
1033,42	23146,00
1033,85	22733,00
1034,28	22355,60
1034,70	22009,40
1035,13	21635,80
1035,56	21251,60
1035,98	21103,80
1036,41	20727,00
1036,83	20503,80
1037,26	20324,20
1037,69	20103,20
1038,11	20096,80
1038,54	20009,20
1038,96	19938,40
1039,39	20052,60
1039,82	20096,00
1040,24	20063,60
1040,67	20032,80
1041,09	20048,60
1041,52	19979,20
1041,95	20048,20
1042,37	19904,60
1042,80	19715,00
1043,22	19373,20
1043,65	19115,80
1044,07	18876,20
1044,50	18594,40
1044,92	18299,40
1045,35	17980,60
1045,78	17786,80
1046,20	17523,80
1046,63	17264,60
1047,05	16994,00
1047,48	16851,80
1047,90	16753,20
1048,33	16596,20
1048,75	16494,00
1049,18	16413,40
1049,60	16374,00
1050,03	16261,80
1050,45	16244,60
1050,88	16272,20
1051,30	16247,60
1051,73	16143,60
1052,15	16064,20
1052,58	15921,80
1053,00	15930,80
1053,43	15722,20
1053,85	15721,00
1054,28	15508,20
1054,70	15398,80
1055,13	15217,60
1055,55	15068,20
1055,98	14877,60
1056,40	14868,20
1056,83	14548,20
1057,25	14351,80
1057,68	14212,40
1058,10	14140,80
1058,52	13775,40
1058,95	13602,00
1059,37	13495,80
1059,80	13292,60
1060,22	13166,60
1060,65	12940,00
1061,07	12952,00
1061,50	12818,40
1061,92	12673,00
1062,34	12674,00
1062,77	12657,40
1063,19	12551,20
1063,62	12413,80
1064,04	12384,00
1064,46	12424,80
1064,89	12355,40
1065,31	12238,80
1065,74	12152,20
1066,16	12028,40
1066,58	12065,80
1067,01	11892,60
1067,43	11845,60
1067,86	11666,00
1068,28	11537,80
1068,70	11513,40
1069,13	11322,40
1069,55	11136,40
1069,97	10940,00
1070,40	10925,40
1070,82	10865,80
1071,25	10773,60
1071,67	10530,60
1072,09	10542,00
1072,52	10418,00
1072,94	10338,60
1073,36	10242,40
1073,79	10302,40
1074,21	10197,80
1074,63	10111,60
1075,06	10130,00
1075,48	10112,80
1075,90	10077,60
1076,33	10073,80
1076,75	9995,40
1077,17	9974,00
1077,59	9994,80
1078,02	9887,00
1078,44	9852,60
1078,86	9822,20
1079,29	9559,40
1079,71	9542,00
1080,13	9401,60
1080,56	9287,40
1080,98	9214,20
1081,40	9074,00
1081,82	9011,00
1082,25	8938,80
1082,67	8811,80
1083,09	8769,80
1083,51	8707,80
1083,94	8646,40
1084,36	8632,60
1084,78	8562,60
1085,21	8477,80
1085,63	8551,00
1086,05	8390,20
1086,47	8371,00
1086,89	8431,00
1087,32	8300,80
1087,74	8397,40
1088,16	10284,20
1088,58	8280,40
1089,01	8187,80
1089,43	8104,00
1089,85	8117,00
1090,27	8121,00
1090,69	7954,20
1091,12	7847,80
1091,54	7788,40
1091,96	7676,80
1092,38	7572,00
1092,80	7555,20
1093,23	7374,40
1093,65	7349,00
1094,07	7286,80
1094,49	7203,20
1094,91	7150,60
1095,34	7110,00
1095,76	7044,20
1096,18	7021,40
1096,60	6991,60
1097,02	6913,40
1097,44	6934,00
1097,87	6846,80
1098,29	6887,40
1098,71	6868,60
1099,13	6836,80
1099,55	6743,20
1099,97	6713,00
1100,39	6620,80
1100,82	6587,60
1101,24	6478,20
1101,66	6428,60
1102,08	6282,60
1102,50	6215,40
1102,92	6157,20
1103,34	6116,60
1103,76	6090,60
1104,19	6502,40
1104,61	6075,20
1105,03	5866,40
1105,45	5977,40
1105,87	5907,00
1106,29	5866,20
1106,71	5891,80
1107,13	5771,80
1107,55	5700,40
1107,97	5796,40
1108,39	5587,60
1108,82	5614,80
1109,24	5538,80
1109,66	5442,80
1110,08	5305,40
1110,50	5289,20
1110,92	5243,20
1111,34	5220,60
1111,76	5176,60
1112,18	5174,80
1112,60	5128,40
1113,02	5118,60
1113,44	5000,40
1113,86	4912,60
1114,28	4814,80
1114,70	4745,80
1115,12	4652,60
1115,54	4665,60
1115,96	4605,60
1116,38	4393,40
1116,80	4251,60
1117,22	4056,60
1117,64	3977,80
1118,06	2160,20
1118,48	2200,20
1118,90	2198,60
1119,32	2198,60
>>>>>End Processed Spectral Data<<<<<
