SpectraSuite Data File
++++++++++++++++++++++++++++++++++++
Date: Wed Oct 15 10:08:19 EEST 2014
User: OO Maya
Dark Spectrum Present: No
Reference Spectrum Present: No
Number of Sampled Component Spectra: 1
Spectrometers: MAYP11278
Integration Time (usec): 500000 (MAYP11278)
Spectra Averaged: 5 (MAYP11278)
Boxcar Smoothing: 0 (MAYP11278)
Correct for Electrical Dark: No (MAYP11278)
Strobe/Lamp Enabled: No (MAYP11278)
Correct for Detector Non-linearity: No (MAYP11278)
Correct for Stray Light: No (MAYP11278)
Number of Pixels in Processed Spectrum: 2068
>>>>>Begin Processed Spectral Data<<<<<
188,14	2315,00
188,62	2226,20
189,09	2197,00
189,57	2198,40
190,05	3018,00
190,53	3073,60
191,01	3112,60
191,49	3129,20
191,97	3198,40
192,44	3148,20
192,92	3119,40
193,40	3114,20
193,88	3146,80
194,36	3138,20
194,84	3175,20
195,31	3123,00
195,79	3185,00
196,27	3147,40
196,75	3139,00
197,23	3298,20
197,70	3152,00
198,18	3108,80
198,66	3147,80
199,14	3118,80
199,62	3168,60
200,09	3195,00
200,57	3128,00
201,05	3137,20
201,53	3182,00
202,01	3190,60
202,48	3177,20
202,96	3083,60
203,44	3171,80
203,92	3117,40
204,40	3187,80
204,87	3226,60
205,35	3139,60
205,83	3128,60
206,31	3218,00
206,78	3147,20
207,26	3173,40
207,74	3273,80
208,22	3155,20
208,69	3198,40
209,17	3145,60
209,65	3190,20
210,13	3164,80
210,60	3148,00
211,08	3162,00
211,56	3189,40
212,04	3167,60
212,51	3123,60
212,99	3252,40
213,47	3202,80
213,95	3137,20
214,42	3273,00
214,90	3171,00
215,38	3244,20
215,85	3180,60
216,33	3205,40
216,81	3195,20
217,29	3189,00
217,76	3127,00
218,24	3155,00
218,72	3228,40
219,19	3086,20
219,67	3119,40
220,15	3138,60
220,62	3176,80
221,10	3279,00
221,58	3146,20
222,05	3213,80
222,53	3142,40
223,01	3206,20
223,49	3156,20
223,96	3216,00
224,44	3157,20
224,92	3147,20
225,39	3120,60
225,87	3170,80
226,35	3127,80
226,82	3175,80
227,30	3231,60
227,77	3173,40
228,25	3208,20
228,73	3215,60
229,20	3198,20
229,68	3166,80
230,16	3192,60
230,63	3158,40
231,11	3209,00
231,59	3241,20
232,06	3173,40
232,54	3179,20
233,02	3126,80
233,49	3187,60
233,97	3195,80
234,44	3364,60
234,92	3185,20
235,40	3165,80
235,87	3145,00
236,35	3120,20
236,82	3224,60
237,30	3267,20
237,78	3170,80
238,25	3193,60
238,73	3194,00
239,20	3184,40
239,68	3170,00
240,16	3122,60
240,63	3217,60
241,11	3262,40
241,58	3195,40
242,06	3163,20
242,53	3214,00
243,01	3248,00
243,49	3140,60
243,96	3139,40
244,44	3227,20
244,91	3260,20
245,39	3146,20
245,86	3243,00
246,34	5575,40
246,82	3107,60
247,29	3197,80
247,77	3184,60
248,24	3193,80
248,72	3186,60
249,19	3108,60
249,67	3174,20
250,14	3227,20
250,62	3205,20
251,09	3264,00
251,57	3195,00
252,04	3292,40
252,52	3248,80
253,00	3170,80
253,47	3236,80
253,95	3197,40
254,42	3175,80
254,90	3207,20
255,37	3214,80
255,85	3227,60
256,32	3178,00
256,80	3217,00
257,27	3220,00
257,75	3243,00
258,22	3358,60
258,70	3193,60
259,17	3170,80
259,65	3199,40
260,12	3232,00
260,59	3275,40
261,07	3180,20
261,54	3162,80
262,02	3266,80
262,49	3145,00
262,97	3218,40
263,44	3203,20
263,92	3144,80
264,39	3237,40
264,87	3253,00
265,34	3174,00
265,82	3193,20
266,29	3208,00
266,76	3245,00
267,24	3181,80
267,71	3187,80
268,19	3212,00
268,66	3227,80
269,14	3139,00
269,61	3160,60
270,09	3190,20
270,56	3239,40
271,03	3265,80
271,51	3179,60
271,98	3202,00
272,46	3137,00
272,93	3155,60
273,40	3119,80
273,88	3209,80
274,35	3401,00
274,83	3237,20
275,30	3243,60
275,78	3172,00
276,25	3204,20
276,72	3246,00
277,20	3249,60
277,67	3156,60
278,14	3194,60
278,62	3151,40
279,09	3428,00
279,57	3173,20
280,04	3173,00
280,51	3409,00
280,99	3259,60
281,46	3366,00
281,93	3186,20
282,41	3272,20
282,88	3183,80
283,36	3209,60
283,83	3236,00
284,30	3166,00
284,78	3167,20
285,25	3242,00
285,72	3205,80
286,20	3225,80
286,67	3229,80
287,14	3160,20
287,62	3246,80
288,09	3291,40
288,56	3187,20
289,04	3258,00
289,51	3134,80
289,98	3278,20
290,46	3169,20
290,93	3245,80
291,40	3187,00
291,88	3215,80
292,35	3335,80
292,82	3173,20
293,29	3273,80
293,77	3186,80
294,24	3240,20
294,71	3241,80
295,19	3197,00
295,66	3225,00
296,13	3231,00
296,61	3324,80
297,08	3317,40
297,55	3255,80
298,02	3252,60
298,50	3249,40
298,97	3196,20
299,44	3304,80
299,91	3208,20
300,39	3237,40
300,86	3198,20
301,33	3272,80
301,81	3270,20
302,28	3255,20
302,75	3181,60
303,22	3255,80
303,70	3268,00
304,17	3207,60
304,64	3216,80
305,11	3188,80
305,58	3248,20
306,06	3250,00
306,53	3248,40
307,00	3269,20
307,47	3208,20
307,95	3182,20
308,42	3232,40
308,89	3202,60
309,36	3278,20
309,83	3269,00
310,31	3254,60
310,78	3252,60
311,25	3256,00
311,72	3201,60
312,20	3287,20
312,67	3221,60
313,14	3338,00
313,61	3191,80
314,08	3210,20
314,56	3241,60
315,03	3181,00
315,50	3202,40
315,97	3281,80
316,44	3254,20
316,91	3248,60
317,39	3261,60
317,86	3243,20
318,33	3402,00
318,80	3244,20
319,27	3234,40
319,74	3186,20
320,22	3268,40
320,69	3334,60
321,16	3294,00
321,63	3227,20
322,10	3169,20
322,57	3210,20
323,04	3351,00
323,52	3232,60
323,99	3377,00
324,46	3149,00
324,93	3260,20
325,40	3250,40
325,87	3220,20
326,34	3243,60
326,82	3265,60
327,29	3299,60
327,76	3296,00
328,23	3288,80
328,70	3287,20
329,17	3244,00
329,64	3243,00
330,11	3234,20
330,58	3237,80
331,05	3285,60
331,53	3275,20
332,00	3365,60
332,47	3232,00
332,94	3379,20
333,41	3318,60
333,88	3333,80
334,35	3369,00
334,82	3291,80
335,29	3317,00
335,76	3482,00
336,23	3229,40
336,70	3286,80
337,18	3266,20
337,65	3281,80
338,12	3258,60
338,59	3259,20
339,06	3369,20
339,53	3321,20
340,00	3232,80
340,47	3211,40
340,94	3225,80
341,41	3273,80
341,88	3331,40
342,35	3223,00
342,82	3266,20
343,29	3293,40
343,76	3272,60
344,23	3236,00
344,70	3238,60
345,17	3195,00
345,64	3252,80
346,11	3266,80
346,58	3222,80
347,05	3215,20
347,52	3314,40
347,99	3176,20
348,46	3279,00
348,93	3251,20
349,40	3170,40
349,87	3252,60
350,34	3262,80
350,81	3238,00
351,28	3178,00
351,75	3238,60
352,22	3327,20
352,69	3229,80
353,16	3191,40
353,63	3241,40
354,10	3239,80
354,57	3239,40
355,04	3248,80
355,51	3243,20
355,98	3314,20
356,45	3182,80
356,92	3310,00
357,39	3182,40
357,86	3331,80
358,33	3269,40
358,80	3171,80
359,27	3200,80
359,74	3209,60
360,21	3201,20
360,68	3287,00
361,14	3309,60
361,61	3214,80
362,08	3206,00
362,55	3218,60
363,02	3221,60
363,49	3225,60
363,96	3342,20
364,43	3263,80
364,90	3193,00
365,37	3253,60
365,84	3213,60
366,31	3173,40
366,77	3253,00
367,24	3239,00
367,71	4315,60
368,18	3153,00
368,65	3181,60
369,12	3279,40
369,59	3183,20
370,06	3281,60
370,53	3239,80
370,99	3201,20
371,46	4217,80
371,93	3231,40
372,40	3194,00
372,87	3171,00
373,34	3218,60
373,81	3250,00
374,27	3182,20
374,74	3187,20
375,21	3247,80
375,68	3173,20
376,15	3312,20
376,62	3213,40
377,09	3184,40
377,55	3169,20
378,02	3225,40
378,49	3240,00
378,96	3221,20
379,43	3221,80
379,90	3223,00
380,36	3240,60
380,83	3302,00
381,30	3239,20
381,77	3303,20
382,24	3296,20
382,71	3166,00
383,17	3241,60
383,64	3219,20
384,11	3277,60
384,58	3232,80
385,05	3528,80
385,51	3228,60
385,98	3205,80
386,45	3213,60
386,92	3340,80
387,39	3180,40
387,85	3161,00
388,32	3277,20
388,79	3245,60
389,26	3279,80
389,72	3164,80
390,19	3261,80
390,66	3224,20
391,13	3248,80
391,59	3216,60
392,06	3238,40
392,53	3247,80
393,00	3203,40
393,46	3209,00
393,93	3350,00
394,40	3217,80
394,87	3285,40
395,33	3184,20
395,80	3264,40
396,27	3486,20
396,74	3156,60
397,20	3253,20
397,67	3254,20
398,14	3162,40
398,61	3197,20
399,07	3188,00
399,54	3173,20
400,01	3270,00
400,47	3159,00
400,94	3217,40
401,41	3188,40
401,88	3250,00
402,34	3224,40
402,81	3235,60
403,28	3197,00
403,74	3312,00
404,21	3260,40
404,68	3366,40
405,14	3410,60
405,61	3408,20
406,08	3312,80
406,54	3444,80
407,01	3459,80
407,48	3592,00
407,95	3535,00
408,41	3586,40
408,88	3637,80
409,35	3579,60
409,81	3726,60
410,28	3634,40
410,74	3775,20
411,21	3681,20
411,68	3845,20
412,14	3764,00
412,61	3737,80
413,08	3854,40
413,54	3804,00
414,01	3881,80
414,48	3885,60
414,94	3982,00
415,41	3878,60
415,88	3989,40
416,34	3957,00
416,81	3940,40
417,27	4042,40
417,74	3996,00
418,21	3968,20
418,67	3992,00
419,14	4010,20
419,60	4068,00
420,07	3972,80
420,54	4065,60
421,00	4005,80
421,47	4090,20
421,93	4059,80
422,40	4118,40
422,87	4081,80
423,33	4122,20
423,80	4131,40
424,26	4180,40
424,73	4158,00
425,19	4219,80
425,66	4188,40
426,13	4277,40
426,59	4184,40
427,06	4301,20
427,52	4277,00
427,99	4323,60
428,45	4215,40
428,92	4331,60
429,38	4318,00
429,85	4322,20
430,32	4338,20
430,78	4533,80
431,25	4324,00
431,71	4362,40
432,18	4483,20
432,64	4491,40
433,11	4441,80
433,57	4428,80
434,04	4514,40
434,50	4557,00
434,97	4717,60
435,43	4694,60
435,90	4970,40
436,36	4796,60
436,83	4574,00
437,29	4662,20
437,76	4636,20
438,22	4632,20
438,69	4615,00
439,15	4627,60
439,62	4909,00
440,08	4712,60
440,55	4733,60
441,01	4788,40
441,48	4696,20
441,94	4714,40
442,41	4904,00
442,87	4714,40
443,34	4803,80
443,80	4844,20
444,27	4784,40
444,73	4939,80
445,20	4895,60
445,66	4889,20
446,12	4914,20
446,59	4945,60
447,05	4917,00
447,52	4970,40
447,98	4910,80
448,45	4949,20
448,91	5073,80
449,38	5030,00
449,84	5037,20
450,30	5018,60
450,77	5030,60
451,23	5078,60
451,70	5112,80
452,16	5162,40
452,63	5098,80
453,09	5234,00
453,55	5192,00
454,02	5246,20
454,48	5253,60
454,95	5267,20
455,41	5283,20
455,87	5306,40
456,34	5369,60
456,80	5315,00
457,27	5447,60
457,73	5398,60
458,19	5404,00
458,66	5389,20
459,12	5479,60
459,58	5463,80
460,05	5484,40
460,51	5479,80
460,98	5514,80
461,44	5671,60
461,90	5643,80
462,37	5579,00
462,83	5580,00
463,29	5718,80
463,76	5684,40
464,22	5703,20
464,68	5753,60
465,15	5717,40
465,61	5745,40
466,07	5851,20
466,54	5814,60
467,00	5883,80
467,46	5934,80
467,93	5877,20
468,39	5957,80
468,85	5968,00
469,32	5978,80
469,78	5927,60
470,24	6055,40
470,71	6044,80
471,17	6034,80
471,63	6068,80
472,10	6081,00
472,56	6136,20
473,02	6160,00
473,48	6294,60
473,95	6198,00
474,41	6218,40
474,87	6268,80
475,34	6271,00
475,80	6335,60
476,26	6342,00
476,72	6393,20
477,19	6434,00
477,65	6438,60
478,11	6540,20
478,58	6469,20
479,04	6570,00
479,50	6531,60
479,96	6650,40
480,43	6633,00
480,89	6643,20
481,35	6638,40
481,81	6719,20
482,28	6770,20
482,74	6725,80
483,20	6792,80
483,66	6764,40
484,13	6816,40
484,59	6990,00
485,05	6955,80
485,51	6984,80
485,97	6915,40
486,44	7017,00
486,90	6986,20
487,36	7085,60
487,82	7071,00
488,29	7077,00
488,75	7160,40
489,21	7266,40
489,67	7263,60
490,13	7334,40
490,60	7263,00
491,06	7362,20
491,52	7309,40
491,98	7366,20
492,44	7356,60
492,90	7552,20
493,37	7516,80
493,83	7554,20
494,29	7567,20
494,75	7564,60
495,21	7589,80
495,67	7636,40
496,14	7708,60
496,60	7682,40
497,06	7758,20
497,52	7882,40
497,98	7872,40
498,44	7812,40
498,91	7889,00
499,37	7874,60
499,83	8083,20
500,29	7978,00
500,75	8012,40
501,21	8085,60
501,67	8068,40
502,14	8146,00
502,60	8146,40
503,06	8210,80
503,52	8225,40
503,98	8266,60
504,44	8233,60
504,90	8387,00
505,36	8395,60
505,82	8387,00
506,29	8462,00
506,75	8560,80
507,21	8521,60
507,67	8608,80
508,13	8623,60
508,59	8607,80
509,05	8657,00
509,51	8601,20
509,97	8733,60
510,43	8789,20
510,89	8773,80
511,35	8948,80
511,82	8926,00
512,28	8875,60
512,74	8904,80
513,20	8963,40
513,66	9118,20
514,12	9045,00
514,58	9203,60
515,04	9322,40
515,50	9144,20
515,96	9226,80
516,42	9353,40
516,88	9384,60
517,34	9574,60
517,80	9492,20
518,26	9532,00
518,72	9719,80
519,18	9580,40
519,64	9574,20
520,10	9621,00
520,56	9678,20
521,02	9780,40
521,48	9858,40
521,94	9908,60
522,40	9857,60
522,86	9906,00
523,32	10078,60
523,78	10102,20
524,24	10063,00
524,70	10292,40
525,16	10223,40
525,62	10280,20
526,08	10349,00
526,54	10344,80
527,00	10397,60
527,46	10444,40
527,92	10485,20
528,38	10601,00
528,84	10625,40
529,30	10622,60
529,76	10702,00
530,22	10743,20
530,68	10843,20
531,14	10771,20
531,60	10950,00
532,06	10936,40
532,52	11025,20
532,98	11029,20
533,44	11115,20
533,90	11172,60
534,36	11139,00
534,82	11243,00
535,28	11260,60
535,73	11365,80
536,19	11372,00
536,65	11435,60
537,11	11466,40
537,57	11580,00
538,03	11611,80
538,49	11701,00
538,95	11859,80
539,41	11882,60
539,87	12157,20
540,33	11863,40
540,79	12130,00
541,24	12141,20
541,70	12142,20
542,16	12403,00
542,62	12439,20
543,08	12489,40
543,54	12687,00
544,00	12566,80
544,46	12749,80
544,91	12685,40
545,37	12910,20
545,83	13328,40
546,29	13334,20
546,75	12873,80
547,21	12738,40
547,67	12786,80
548,13	12791,00
548,58	12844,80
549,04	12867,20
549,50	12891,80
549,96	13123,00
550,42	13014,20
550,88	13046,20
551,33	13177,20
551,79	13146,20
552,25	13377,40
552,71	13333,40
553,17	13313,60
553,63	13412,20
554,08	13430,40
554,54	13407,60
555,00	13566,20
555,46	13578,00
555,92	13778,60
556,37	13748,00
556,83	13800,00
557,29	13736,60
557,75	13830,60
558,21	14051,20
558,66	13904,40
559,12	14048,40
559,58	14049,00
560,04	14124,20
560,50	14137,60
560,95	14272,00
561,41	14275,60
561,87	14363,20
562,33	14399,00
562,78	14437,00
563,24	14497,80
563,70	14620,60
564,16	14522,60
564,61	14674,20
565,07	14684,60
565,53	14775,60
565,99	14836,80
566,44	14957,80
566,90	14882,60
567,36	14898,60
567,82	15114,60
568,27	15109,60
568,73	15121,80
569,19	15169,20
569,65	15289,40
570,10	15267,60
570,56	15338,00
571,02	15392,80
571,47	15456,20
571,93	15390,80
572,39	15540,40
572,85	15579,20
573,30	15607,60
573,76	15623,80
574,22	15718,00
574,67	15855,20
575,13	15856,00
575,59	15809,60
576,04	15903,80
576,50	15987,60
576,96	16214,60
577,42	16133,40
577,87	16142,80
578,33	16228,00
578,79	16409,80
579,24	16403,00
579,70	16447,00
580,16	16537,20
580,61	16577,80
581,07	16557,20
581,53	16607,20
581,98	16706,40
582,44	16682,40
582,89	16723,60
583,35	16812,40
583,81	16934,00
584,26	17007,40
584,72	17098,60
585,18	17061,40
585,63	17274,20
586,09	17196,60
586,55	17344,40
587,00	17425,40
587,46	17501,80
587,91	17601,80
588,37	17580,00
588,83	17707,60
589,28	17709,80
589,74	17812,60
590,19	17882,60
590,65	17954,00
591,11	17940,40
591,56	18089,60
592,02	18256,00
592,47	18232,20
592,93	18352,40
593,39	18336,20
593,84	18394,40
594,30	18540,80
594,75	18548,80
595,21	18603,20
595,66	18640,60
596,12	18706,40
596,58	18888,00
597,03	18954,00
597,49	18909,40
597,94	18967,40
598,40	19018,40
598,85	19141,20
599,31	19327,60
599,76	19272,60
600,22	19468,20
600,67	19511,80
601,13	19525,60
601,59	19577,60
602,04	19547,40
602,50	19883,40
602,95	19717,20
603,41	19819,40
603,86	19771,20
604,32	19859,60
604,77	20052,00
605,23	20012,40
605,68	20156,80
606,14	20103,60
606,59	20165,00
607,05	20272,60
607,50	20338,40
607,96	20393,20
608,41	20463,60
608,87	20528,00
609,32	20752,20
609,78	20775,80
610,23	20968,60
610,69	21247,40
611,14	21650,20
611,60	21626,20
612,05	21556,80
612,50	21445,20
612,96	21424,80
613,41	21645,80
613,87	21480,00
614,32	21533,40
614,78	21566,20
615,23	21718,60
615,69	21754,00
616,14	21822,80
616,59	21870,40
617,05	21995,20
617,50	21956,60
617,96	22113,60
618,41	22070,20
618,87	22213,20
619,32	22264,20
619,77	22404,40
620,23	22465,80
620,68	22606,80
621,14	22699,20
621,59	22705,20
622,05	22823,00
622,50	22980,00
622,95	23068,40
623,41	22963,80
623,86	23000,80
624,32	23264,40
624,77	23188,20
625,22	23351,20
625,68	23428,60
626,13	23453,60
626,58	23566,00
627,04	23601,00
627,49	23674,00
627,95	23822,40
628,40	23872,40
628,85	23793,40
629,31	23923,00
629,76	24030,80
630,21	24189,60
630,67	24239,80
631,12	24265,60
631,57	24331,80
632,03	24394,60
632,48	24491,20
632,93	24447,60
633,39	24526,60
633,84	24595,00
634,29	24585,80
634,75	24692,20
635,20	24667,40
635,65	24781,60
636,11	24755,00
636,56	24890,80
637,01	25003,20
637,47	24976,00
637,92	25181,40
638,37	25177,00
638,83	25119,00
639,28	25256,20
639,73	25255,00
640,18	25389,20
640,64	25461,60
641,09	25549,60
641,54	25567,40
642,00	25629,20
642,45	25664,60
642,90	25676,80
643,35	25804,60
643,81	25975,80
644,26	25947,20
644,71	26025,40
645,17	26048,40
645,62	26133,40
646,07	26234,00
646,52	26270,60
646,98	26398,20
647,43	26457,60
647,88	26402,00
648,33	26545,00
648,79	26471,80
649,24	26673,40
649,69	26793,60
650,14	27008,80
650,59	26861,00
651,05	26836,60
651,50	26962,20
651,95	27030,60
652,40	26966,40
652,86	27134,60
653,31	27160,00
653,76	27217,40
654,21	27252,00
654,66	27379,00
655,12	27358,40
655,57	27459,60
656,02	27506,60
656,47	27507,00
656,92	27670,40
657,38	27740,40
657,83	27909,00
658,28	27852,60
658,73	27810,40
659,18	27846,80
659,63	28162,00
660,09	27996,00
660,54	28157,40
660,99	28146,80
661,44	28240,20
661,89	28306,20
662,34	28290,00
662,80	28295,20
663,25	28425,20
663,70	28407,00
664,15	28525,00
664,60	28625,20
665,05	28562,00
665,50	28736,20
665,96	28689,40
666,41	28784,40
666,86	28817,80
667,31	29024,60
667,76	29084,60
668,21	29051,40
668,66	29103,00
669,11	29089,40
669,56	29353,40
670,02	29176,60
670,47	29257,80
670,92	29455,20
671,37	29527,60
671,82	29636,80
672,27	29759,20
672,72	29620,60
673,17	29649,60
673,62	29825,60
674,07	29876,20
674,52	29762,40
674,98	29846,60
675,43	29868,60
675,88	30042,00
676,33	30128,60
676,78	30187,60
677,23	30129,40
677,68	30241,20
678,13	30373,20
678,58	30222,80
679,03	30379,00
679,48	30464,40
679,93	30582,20
680,38	30609,60
680,83	30673,00
681,28	30581,20
681,73	30552,80
682,18	30618,20
682,63	30774,00
683,08	30871,40
683,53	31024,40
683,98	31030,60
684,43	31120,20
684,89	31044,20
685,34	31096,40
685,79	31129,20
686,24	31140,60
686,69	31280,60
687,14	31424,80
687,59	31325,20
688,04	31362,60
688,49	31561,80
688,93	31697,00
689,38	31506,00
689,83	31411,20
690,28	31595,60
690,73	31673,80
691,18	31525,20
691,63	31667,40
692,08	31627,40
692,53	31729,60
692,98	31838,80
693,43	32012,80
693,88	32143,20
694,33	32077,40
694,78	32213,20
695,23	32530,00
695,68	32370,40
696,13	32392,00
696,58	32608,20
697,03	32401,20
697,48	32362,00
697,93	32423,20
698,38	32478,80
698,82	32618,60
699,27	32677,80
699,72	32780,40
700,17	32836,40
700,62	33025,40
701,07	32967,00
701,52	33073,80
701,97	32763,00
702,42	32907,60
702,87	32888,20
703,32	33037,60
703,76	33249,80
704,21	33284,80
704,66	33359,40
705,11	33473,20
705,56	33375,80
706,01	33303,80
706,46	33159,80
706,91	33362,40
707,36	33439,20
707,80	33567,40
708,25	33685,80
708,70	33880,80
709,15	33768,00
709,60	33744,40
710,05	33574,40
710,50	33656,40
710,94	33636,00
711,39	33806,60
711,84	33947,00
712,29	34075,00
712,74	34001,60
713,19	34126,20
713,63	34020,60
714,08	34003,20
714,53	34052,40
714,98	34223,60
715,43	34061,40
715,87	34194,20
716,32	34186,40
716,77	34331,80
717,22	34155,20
717,67	34207,60
718,12	34149,60
718,56	34195,00
719,01	34161,00
719,46	34202,60
719,91	34264,00
720,35	34411,80
720,80	34404,40
721,25	34461,00
721,70	34373,20
722,15	34319,60
722,59	34268,80
723,04	34141,80
723,49	34096,60
723,94	34257,00
724,38	34295,80
724,83	34546,80
725,28	34452,60
725,73	34518,80
726,17	34634,00
726,62	34684,60
727,07	34738,60
727,52	34606,60
727,96	34627,20
728,41	34626,20
728,86	34677,00
729,31	34844,60
729,75	34802,60
730,20	35036,20
730,65	35141,40
731,09	35247,40
731,54	35296,20
731,99	35222,20
732,44	35235,20
732,88	35230,20
733,33	35392,20
733,78	35520,40
734,22	35607,80
734,67	35862,40
735,12	36012,60
735,57	36067,80
736,01	36271,00
736,46	36060,00
736,91	36067,60
737,35	36154,60
737,80	36089,00
738,25	36210,00
738,69	36216,20
739,14	36344,20
739,59	36478,20
740,03	36669,40
740,48	36619,60
740,93	36640,00
741,37	36685,20
741,82	36669,60
742,26	36585,40
742,71	36480,60
743,16	36534,20
743,60	36601,80
744,05	36766,00
744,50	36778,80
744,94	36964,00
745,39	36990,80
745,84	36973,40
746,28	36903,00
746,73	36843,80
747,17	36671,00
747,62	36583,00
748,07	36630,40
748,51	36720,00
748,96	36784,80
749,40	36925,80
749,85	37116,20
750,30	37133,80
750,74	37073,60
751,19	37115,20
751,63	37025,60
752,08	36826,80
752,53	36886,40
752,97	37008,20
753,42	36818,20
753,86	36873,00
754,31	36967,20
754,75	37134,20
755,20	37268,60
755,64	37287,60
756,09	37193,80
756,54	37070,20
756,98	36823,00
757,43	36933,80
757,87	36813,40
758,32	36949,40
758,76	37025,60
759,21	37136,60
759,65	37143,40
760,10	37231,20
760,54	37164,40
760,99	36996,80
761,43	36960,80
761,88	36970,40
762,33	36860,20
762,77	36837,20
763,22	37112,80
763,66	37415,40
764,11	37536,40
764,55	37699,80
765,00	37810,40
765,44	37707,20
765,89	37591,40
766,33	37379,20
766,77	37249,80
767,22	37217,80
767,66	37360,00
768,11	37466,80
768,55	37841,40
769,00	38039,80
769,44	38417,20
769,89	38428,80
770,33	38351,80
770,78	38361,40
771,22	38253,40
771,67	38242,60
772,11	38119,60
772,56	38073,80
773,00	37893,80
773,44	38083,60
773,89	38048,80
774,33	37969,00
774,78	38281,00
775,22	38339,60
775,67	38589,20
776,11	38766,80
776,55	38748,00
777,00	38616,40
777,44	38550,40
777,89	38280,60
778,33	38243,20
778,77	38110,80
779,22	38022,00
779,66	38363,20
780,11	38344,20
780,55	38454,20
780,99	38723,40
781,44	38729,40
781,88	38705,00
782,33	38599,20
782,77	38425,20
783,21	38305,80
783,66	38078,00
784,10	37876,60
784,55	37748,00
784,99	37668,80
785,43	37827,60
785,88	38043,20
786,32	38235,20
786,76	38442,80
787,21	38575,00
787,65	38342,40
788,09	38218,20
788,54	37975,80
788,98	37807,00
789,42	37751,20
789,87	37469,60
790,31	37468,80
790,75	37290,40
791,20	37535,40
791,64	37825,60
792,08	38021,20
792,53	38076,80
792,97	38205,00
793,41	38308,00
793,86	37967,80
794,30	37569,60
794,74	37319,00
795,18	36928,80
795,63	36832,80
796,07	36893,60
796,51	36990,60
796,96	37328,60
797,40	37465,00
797,84	37632,00
798,28	37731,40
798,73	37803,60
799,17	37531,40
799,61	37310,00
800,06	37026,00
800,50	36637,40
800,94	36511,00
801,38	36520,20
801,83	36519,80
802,27	36686,20
802,71	37032,80
803,15	37465,20
803,60	37488,00
804,04	37602,40
804,48	37542,60
804,92	37360,80
805,37	37115,40
805,81	36803,80
806,25	36312,40
806,69	36011,20
807,13	36165,80
807,58	36108,20
808,02	36323,60
808,46	36589,60
808,90	36902,80
809,34	37237,40
809,79	37434,60
810,23	37450,00
810,67	37473,00
811,11	37458,20
811,55	37224,80
812,00	36778,20
812,44	36337,60
812,88	36278,80
813,32	36241,00
813,76	35969,20
814,21	36070,20
814,65	36217,80
815,09	36703,40
815,53	37090,60
815,97	37293,80
816,41	37351,40
816,85	37518,00
817,30	37375,00
817,74	37197,20
818,18	36963,00
818,62	36482,80
819,06	36203,40
819,50	36029,40
819,94	35886,20
820,39	36021,40
820,83	36234,40
821,27	36474,60
821,71	36692,20
822,15	37208,20
822,59	37302,80
823,03	37491,60
823,47	37465,20
823,92	37211,00
824,36	37119,00
824,80	36750,40
825,24	36476,40
825,68	36266,40
826,12	36086,20
826,56	36071,00
827,00	36129,60
827,44	36432,40
827,88	36797,60
828,32	37233,20
828,77	37310,80
829,21	37435,80
829,65	37518,60
830,09	37350,40
830,53	37236,60
830,97	36860,20
831,41	36604,60
831,85	36197,40
832,29	36059,80
832,73	36135,60
833,17	36353,00
833,61	36824,60
834,05	37224,60
834,49	37520,00
834,93	37812,40
835,37	37799,20
835,81	37715,20
836,25	37362,80
836,69	36853,60
837,13	36431,80
837,57	36292,00
838,01	35942,60
838,45	36010,60
838,89	36097,80
839,33	36362,80
839,77	36775,80
840,21	37348,00
840,65	37747,40
841,09	38104,80
841,53	38269,00
841,97	38181,20
842,41	37884,80
842,85	37590,40
843,29	37030,40
843,73	36467,80
844,17	36096,00
844,61	35877,40
845,05	35849,40
845,49	36098,40
845,93	36379,60
846,37	36961,80
846,81	37318,20
847,25	37920,00
847,69	38469,40
848,13	38558,40
848,57	38684,40
849,01	38574,60
849,45	38525,80
849,89	38362,60
850,32	37877,60
850,76	37319,40
851,20	37026,00
851,64	36752,80
852,08	36593,80
852,52	36535,60
852,96	36492,80
853,40	36891,40
853,84	37328,20
854,28	37880,40
854,72	38738,60
855,16	39003,40
855,59	39179,60
856,03	39071,00
856,47	38969,00
856,91	38342,20
857,35	37702,80
857,79	37090,60
858,23	36592,40
858,67	36449,40
859,10	36293,80
859,54	36675,60
859,98	37215,40
860,42	37920,40
860,86	38338,40
861,30	39028,60
861,74	39223,20
862,17	39393,80
862,61	39345,00
863,05	39147,40
863,49	38614,20
863,93	38301,80
864,37	37720,80
864,80	37330,80
865,24	37217,80
865,68	37108,60
866,12	37333,40
866,56	37534,40
867,00	37956,40
867,43	38302,20
867,87	39020,00
868,31	39379,60
868,75	39652,00
869,19	39865,20
869,62	39611,80
870,06	39069,00
870,50	38452,80
870,94	37447,80
871,38	36826,20
871,81	36575,80
872,25	36377,60
872,69	36594,60
873,13	37052,60
873,56	37550,80
874,00	38408,20
874,44	39011,60
874,88	39492,20
875,31	39817,60
875,75	40100,80
876,19	39889,20
876,63	39957,80
877,06	39450,00
877,50	38856,60
877,94	38238,80
878,38	37747,00
878,81	37227,00
879,25	37044,00
879,69	36907,60
880,13	36945,00
880,56	37066,40
881,00	37736,00
881,44	38529,20
881,87	39440,80
882,31	40119,20
882,75	40714,40
883,19	41080,80
883,62	41081,80
884,06	40816,60
884,50	40148,00
884,93	39523,80
885,37	38778,40
885,81	38368,40
886,24	37548,40
886,68	37249,80
887,12	37162,40
887,55	37016,00
887,99	37377,60
888,43	37931,00
888,86	38387,20
889,30	39242,20
889,74	39583,20
890,17	40163,40
890,61	40718,80
891,05	41231,20
891,48	41668,60
891,92	41682,80
892,36	41059,60
892,79	40417,80
893,23	39461,40
893,67	38945,40
894,10	38300,80
894,54	37938,80
894,97	37863,60
895,41	37708,20
895,85	38024,40
896,28	38568,80
896,72	39462,40
897,16	40156,40
897,59	40916,20
898,03	41620,40
898,46	42271,00
898,90	42614,20
899,34	42294,20
899,77	41824,00
900,21	41306,80
900,64	40729,40
901,08	39812,20
901,51	39012,80
901,95	38499,40
902,39	38036,00
902,82	37779,40
903,26	37869,20
903,69	38235,20
904,13	38598,40
904,56	38981,20
905,00	39263,20
905,43	39722,40
905,87	40212,00
906,31	40810,40
906,74	41061,20
907,18	41570,80
907,61	41735,20
908,05	41670,80
908,48	41352,60
908,92	40804,00
909,35	40155,80
909,79	39254,60
910,22	38609,80
910,66	38303,60
911,09	38061,60
911,53	38181,60
911,96	38568,80
912,40	39163,20
912,83	39941,00
913,27	40879,60
913,70	41675,20
914,14	42337,60
914,57	42919,60
915,01	42997,40
915,44	42590,80
915,88	41654,20
916,31	40571,60
916,75	39482,40
917,18	38945,00
917,62	38519,00
918,05	38566,20
918,49	38799,00
918,92	38918,80
919,35	39141,40
919,79	39827,00
920,22	40114,40
920,66	40596,80
921,09	41324,20
921,53	41870,00
921,96	42392,60
922,40	42625,00
922,83	42776,20
923,26	42720,00
923,70	42451,20
924,13	41868,80
924,57	41178,20
925,00	40615,40
925,44	39803,80
925,87	39065,40
926,30	38287,80
926,74	37725,20
927,17	37897,60
927,61	37991,00
928,04	38619,00
928,47	38838,00
928,91	39537,20
929,34	40226,80
929,77	40946,20
930,21	41354,00
930,64	41411,00
931,08	41119,60
931,51	40784,20
931,94	39923,40
932,38	39347,00
932,81	38514,20
933,24	37666,00
933,68	36518,40
934,11	35929,60
934,54	35401,40
934,98	35183,40
935,41	35006,40
935,84	34851,40
936,28	35118,60
936,71	35381,40
937,14	35707,00
937,58	35874,60
938,01	36002,60
938,44	35790,00
938,88	35443,20
939,31	34802,40
939,74	33794,20
940,18	32885,80
940,61	31946,80
941,04	31133,40
941,48	30262,80
941,91	29816,60
942,34	29385,00
942,77	29133,60
943,21	29326,20
943,64	29472,00
944,07	29683,80
944,51	29982,60
944,94	30462,00
945,37	30823,60
945,80	31172,00
946,24	31563,80
946,67	32123,80
947,10	32676,80
947,53	32784,80
947,97	32952,00
948,40	32912,60
948,83	32642,20
949,26	32107,20
949,70	31728,00
950,13	31517,20
950,56	31014,20
950,99	30661,60
951,43	30510,00
951,86	30731,00
952,29	31097,40
952,72	31884,20
953,15	32686,80
953,59	33638,20
954,02	34437,60
954,45	35156,40
954,88	35653,40
955,31	35826,60
955,75	35865,60
956,18	35630,00
956,61	35052,20
957,04	34517,40
957,47	34096,00
957,91	33381,60
958,34	33001,80
958,77	32720,60
959,20	32515,00
959,63	32438,40
960,06	32396,20
960,50	32676,20
960,93	33038,80
961,36	33588,80
961,79	34116,20
962,22	34757,20
962,65	35393,20
963,09	35798,60
963,52	36464,80
963,95	36694,20
964,38	36707,60
964,81	36531,00
965,24	35913,60
965,67	35430,80
966,10	34579,60
966,54	33811,00
966,97	33163,40
967,40	32564,80
967,83	32320,20
968,26	32242,60
968,69	32513,40
969,12	32416,60
969,55	32374,60
969,98	32355,20
970,42	32490,80
970,85	32792,20
971,28	33141,80
971,71	33438,60
972,14	33982,80
972,57	34514,40
973,00	34957,80
973,43	35184,00
973,86	35126,20
974,29	34869,60
974,72	34235,00
975,15	33601,00
975,58	32767,60
976,01	32194,40
976,45	31611,80
976,88	31405,80
977,31	31056,40
977,74	31015,60
978,17	30888,20
978,60	31152,60
979,03	31425,80
979,46	31773,60
979,89	32356,80
980,32	32695,20
980,75	33027,60
981,18	33364,40
981,61	33740,00
982,04	33825,80
982,47	33848,40
982,90	33840,80
983,33	33739,40
983,76	33413,60
984,19	33353,00
984,62	33073,40
985,05	32547,40
985,48	31946,20
985,91	31415,80
986,34	30904,00
986,77	30315,80
987,20	29881,80
987,63	29734,80
988,06	29548,40
988,49	29565,60
988,92	29790,60
989,35	29934,60
989,78	30264,00
990,20	30490,20
990,63	30978,00
991,06	31371,40
991,49	31719,60
991,92	32068,80
992,35	32049,40
992,78	31860,40
993,21	31612,60
993,64	31254,20
994,07	30859,60
994,50	30457,00
994,93	29926,00
995,36	29354,60
995,79	28852,80
996,21	28543,80
996,64	28352,60
997,07	27986,80
997,50	27933,60
997,93	27924,00
998,36	27939,60
998,79	28024,00
999,22	28170,00
999,65	28506,40
1000,07	28733,40
1000,50	29116,00
1000,93	29384,20
1001,36	29530,80
1001,79	29522,60
1002,22	29479,60
1002,65	29087,00
1003,08	28761,80
1003,50	28233,20
1003,93	27648,60
1004,36	26981,60
1004,79	26587,00
1005,22	26068,00
1005,65	25890,20
1006,07	25470,00
1006,50	25214,80
1006,93	25151,80
1007,36	25142,40
1007,79	25084,20
1008,22	25137,20
1008,64	25201,80
1009,07	25328,80
1009,50	25624,20
1009,93	25482,60
1010,36	25547,60
1010,78	25487,80
1011,21	25687,00
1011,64	25626,80
1012,07	25551,60
1012,50	25615,80
1012,92	25382,80
1013,35	25190,60
1013,78	24736,80
1014,21	24249,60
1014,64	23830,20
1015,06	23306,60
1015,49	23037,40
1015,92	22754,40
1016,35	22745,80
1016,77	22626,00
1017,20	22881,60
1017,63	22985,00
1018,06	24186,00
1018,48	23423,00
1018,91	23538,60
1019,34	23975,20
1019,77	24109,80
1020,19	24269,00
1020,62	24400,00
1021,05	24503,60
1021,47	24620,20
1021,90	24758,80
1022,33	24905,80
1022,76	24841,60
1023,18	25063,00
1023,61	24830,00
1024,04	24503,00
1024,46	24161,00
1024,89	23886,60
1025,32	23658,00
1025,75	23425,60
1026,17	23156,20
1026,60	23006,80
1027,03	23045,40
1027,45	22859,80
1027,88	22832,60
1028,31	22787,00
1028,73	22877,80
1029,16	23063,00
1029,59	23367,20
1030,01	23367,60
1030,44	23463,80
1030,87	23437,00
1031,29	23487,00
1031,72	23225,40
1032,15	23192,80
1032,57	23025,40
1033,00	22739,60
1033,42	22403,00
1033,85	22122,20
1034,28	21702,20
1034,70	21290,00
1035,13	21054,00
1035,56	20650,20
1035,98	20472,00
1036,41	20056,60
1036,83	19863,20
1037,26	19756,00
1037,69	19437,20
1038,11	19432,60
1038,54	19408,80
1038,96	19360,20
1039,39	19383,60
1039,82	19428,40
1040,24	19436,60
1040,67	19412,60
1041,09	19468,40
1041,52	19464,80
1041,95	19444,00
1042,37	19261,60
1042,80	19052,80
1043,22	18833,00
1043,65	18579,20
1044,07	18361,40
1044,50	17946,00
1044,92	17742,40
1045,35	17478,40
1045,78	17172,40
1046,20	16999,60
1046,63	16837,60
1047,05	16502,20
1047,48	16366,80
1047,90	16239,60
1048,33	16030,80
1048,75	16061,80
1049,18	15990,80
1049,60	15885,40
1050,03	15773,00
1050,45	15741,60
1050,88	15704,40
1051,30	15622,60
1051,73	15628,40
1052,15	15522,20
1052,58	15457,80
1053,00	15403,60
1053,43	15235,60
1053,85	15240,00
1054,28	15031,20
1054,70	14917,40
1055,13	14746,20
1055,55	14604,40
1055,98	14438,20
1056,40	14306,40
1056,83	14101,80
1057,25	13917,00
1057,68	13713,80
1058,10	13760,80
1058,52	13317,40
1058,95	13206,60
1059,37	13131,40
1059,80	12844,20
1060,22	12700,20
1060,65	12570,80
1061,07	12539,20
1061,50	12403,20
1061,92	12305,00
1062,34	12303,40
1062,77	12236,00
1063,19	12177,00
1063,62	12055,80
1064,04	12003,20
1064,46	12074,60
1064,89	11989,80
1065,31	11866,40
1065,74	11783,80
1066,16	11670,60
1066,58	11694,00
1067,01	11591,40
1067,43	11443,80
1067,86	11347,00
1068,28	11224,60
1068,70	11173,80
1069,13	10998,00
1069,55	10754,00
1069,97	10621,60
1070,40	10641,40
1070,82	10527,80
1071,25	10420,00
1071,67	10244,80
1072,09	10219,40
1072,52	10139,40
1072,94	10024,20
1073,36	9951,60
1073,79	9972,40
1074,21	9908,40
1074,63	9784,20
1075,06	9767,00
1075,48	9766,80
1075,90	9779,60
1076,33	9753,60
1076,75	9692,20
1077,17	9685,80
1077,59	9674,40
1078,02	9596,20
1078,44	9572,00
1078,86	9508,40
1079,29	9268,20
1079,71	9283,60
1080,13	9113,00
1080,56	9033,60
1080,98	8929,20
1081,40	8757,40
1081,82	8743,80
1082,25	8663,20
1082,67	8539,80
1083,09	8489,80
1083,51	8475,20
1083,94	8398,00
1084,36	8377,20
1084,78	8317,00
1085,21	8204,80
1085,63	8279,00
1086,05	8107,60
1086,47	8145,40
1086,89	8156,20
1087,32	8029,00
1087,74	8106,60
1088,16	10018,40
1088,58	8046,40
1089,01	7980,00
1089,43	7900,80
1089,85	7868,40
1090,27	7862,60
1090,69	7739,80
1091,12	7631,40
1091,54	7563,60
1091,96	7493,20
1092,38	7355,20
1092,80	7279,20
1093,23	7198,80
1093,65	7144,60
1094,07	7071,40
1094,49	7021,00
1094,91	6985,40
1095,34	6899,00
1095,76	6850,20
1096,18	6830,20
1096,60	6803,20
1097,02	6701,60
1097,44	6745,80
1097,87	6687,80
1098,29	6693,00
1098,71	6675,00
1099,13	6685,40
1099,55	6562,20
1099,97	6542,60
1100,39	6445,40
1100,82	6404,80
1101,24	6292,20
1101,66	6216,80
1102,08	6113,00
1102,50	6060,40
1102,92	6035,00
1103,34	5945,00
1103,76	5917,20
1104,19	6327,20
1104,61	5910,20
1105,03	5734,00
1105,45	5790,00
1105,87	5774,00
1106,29	5728,40
1106,71	5723,20
1107,13	5616,00
1107,55	5587,40
1107,97	5651,00
1108,39	5472,20
1108,82	5480,20
1109,24	5401,80
1109,66	5305,20
1110,08	5182,00
1110,50	5172,00
1110,92	5110,40
1111,34	5108,00
1111,76	5076,40
1112,18	5063,80
1112,60	5027,00
1113,02	5026,80
1113,44	4906,20
1113,86	4824,40
1114,28	4736,60
1114,70	4681,00
1115,12	4564,60
1115,54	4575,40
1115,96	4536,40
1116,38	4332,20
1116,80	4194,20
1117,22	4013,60
1117,64	3914,20
1118,06	2161,80
1118,48	2201,40
1118,90	2200,60
1119,32	2197,80
>>>>>End Processed Spectral Data<<<<<
