SpectraSuite Data File
++++++++++++++++++++++++++++++++++++
Date: Thu Mar 13 08:51:09 EET 2014
User: OO Maya
Dark Spectrum Present: No
Reference Spectrum Present: No
Number of Sampled Component Spectra: 1
Spectrometers: MAYP11278
Integration Time (usec): 100000 (MAYP11278)
Spectra Averaged: 10 (MAYP11278)
Boxcar Smoothing: 0 (MAYP11278)
Correct for Electrical Dark: No (MAYP11278)
Strobe/Lamp Enabled: No (MAYP11278)
Correct for Detector Non-linearity: No (MAYP11278)
Correct for Stray Light: No (MAYP11278)
Number of Pixels in Processed Spectrum: 2068
>>>>>Begin Processed Spectral Data<<<<<
188,22	2310,20
188,70	2222,80
189,18	2197,30
189,66	2195,70
190,13	2381,10
190,61	2384,00
191,09	2382,40
191,57	2395,50
192,05	2403,50
192,53	2388,70
193,00	2385,50
193,48	2380,70
193,96	2387,40
194,44	2384,00
194,92	2395,80
195,40	2381,80
195,87	2397,90
196,35	2382,10
196,83	2390,80
197,31	2417,30
197,79	2387,80
198,26	2382,70
198,74	2393,10
199,22	2382,70
199,70	2394,20
200,18	2398,40
200,65	2382,60
201,13	2386,80
201,61	2401,00
202,09	2400,60
202,56	2395,20
203,04	2381,30
203,52	2394,80
204,00	2385,70
204,47	2397,40
204,95	2406,20
205,43	2388,30
205,91	2384,70
206,39	2408,90
206,86	2385,20
207,34	2399,40
207,82	2419,40
208,30	2396,80
208,77	2399,50
209,25	2385,60
209,73	2405,70
210,20	2398,30
210,68	2390,40
211,16	2398,40
211,64	2393,80
212,11	2390,90
212,59	2388,80
213,07	2412,50
213,55	2398,70
214,02	2387,90
214,50	2412,40
214,98	2391,40
215,45	2410,10
215,93	2395,70
216,41	2401,10
216,89	2400,40
217,36	2400,20
217,84	2385,00
218,32	2396,10
218,79	2407,50
219,27	2379,40
219,75	2387,40
220,22	2387,30
220,70	2392,00
221,18	2418,90
221,65	2394,20
222,13	2400,60
222,61	2390,60
223,08	2406,00
223,56	2392,60
224,04	2402,30
224,51	2395,40
224,99	2397,00
225,47	2387,80
225,94	2396,90
226,42	2391,40
226,90	2395,90
227,37	2405,60
227,85	2390,20
228,33	2397,70
228,80	2402,20
229,28	2404,80
229,76	2397,20
230,23	2390,10
230,71	2393,50
231,18	2401,70
231,66	2414,60
232,14	2396,10
232,61	2393,00
233,09	2384,70
233,57	2397,30
234,04	2399,50
234,52	2434,60
234,99	2400,50
235,47	2394,20
235,95	2397,10
236,42	2379,50
236,90	2405,10
237,37	2419,50
237,85	2390,40
238,33	2397,40
238,80	2401,60
239,28	2400,00
239,75	2392,30
240,23	2384,60
240,70	2401,60
241,18	2414,10
241,66	2397,80
242,13	2390,10
242,61	2406,60
243,08	2411,50
243,56	2389,30
244,03	2388,40
244,51	2407,00
244,99	2419,60
245,46	2394,60
245,94	2404,50
246,41	2408,80
246,89	2392,20
247,36	2400,60
247,84	2398,60
248,31	2403,30
248,79	2395,90
249,26	2378,60
249,74	2400,00
250,22	2411,70
250,69	2404,70
251,17	2416,80
251,64	2397,40
252,12	2416,60
252,59	2409,80
253,07	2395,20
253,54	2413,70
254,02	2394,30
254,49	2396,10
254,97	2397,70
255,44	2402,60
255,92	2405,60
256,39	2392,80
256,87	2402,40
257,34	2402,30
257,82	2411,20
258,29	2430,60
258,77	2398,50
259,24	2395,10
259,72	2403,80
260,19	2400,40
260,67	2421,80
261,14	2390,00
261,61	2392,40
262,09	2410,80
262,56	2390,80
263,04	2405,70
263,51	2401,10
263,99	2386,50
264,46	2407,30
264,94	2406,00
265,41	2393,60
265,89	2401,80
266,36	2403,20
266,83	2410,30
267,31	2392,70
267,78	2398,30
268,26	2408,00
268,73	2401,60
269,21	2379,40
269,68	2386,10
270,15	2392,80
270,63	2407,40
271,10	2411,50
271,58	2395,50
272,05	2403,40
272,53	2388,10
273,00	2381,90
273,47	2376,50
273,95	2400,50
274,42	2441,50
274,90	2410,60
275,37	2407,10
275,84	2394,10
276,32	2395,60
276,79	2407,30
277,26	2402,10
277,74	2392,40
278,21	2399,50
278,69	2387,10
279,16	2450,90
279,63	2397,60
280,11	2396,40
280,58	2444,50
281,05	2411,20
281,53	2433,90
282,00	2390,10
282,48	2413,10
282,95	2394,80
283,42	2397,70
283,90	2395,80
284,37	2391,10
284,84	2385,80
285,32	2407,60
285,79	2399,60
286,26	2401,20
286,74	2406,70
287,21	2387,40
287,68	2403,30
288,16	2415,80
288,63	2397,00
289,10	2397,50
289,58	2382,00
290,05	2417,70
290,52	2390,40
291,00	2401,80
291,47	2392,80
291,94	2412,60
292,41	2424,30
292,89	2389,30
293,36	2411,40
293,83	2390,40
294,31	2403,90
294,78	2405,20
295,25	2391,70
295,73	2406,80
296,20	2404,30
296,67	2418,90
297,14	2418,20
297,62	2395,00
298,09	2408,00
298,56	2410,90
299,03	2397,30
299,51	2412,90
299,98	2394,60
300,45	2408,30
300,92	2388,90
301,40	2418,40
301,87	2408,20
302,34	2410,30
302,82	2387,00
303,29	2408,90
303,76	2406,10
304,23	2393,80
304,70	2394,60
305,18	2388,90
305,65	2397,60
306,12	2408,10
306,59	2404,20
307,07	2401,30
307,54	2395,70
308,01	2396,80
308,48	2402,90
308,95	2395,90
309,43	2414,10
309,90	2407,70
310,37	2409,50
310,84	2403,00
311,32	2402,80
311,79	2400,30
312,26	2409,70
312,73	2403,50
313,20	2422,00
313,68	2397,30
314,15	2398,90
314,62	2399,70
315,09	2396,20
315,56	2391,30
316,03	2407,90
316,51	2406,80
316,98	2399,90
317,45	2413,40
317,92	2403,90
318,39	2436,70
318,86	2403,10
319,34	2400,10
319,81	2383,90
320,28	2407,30
320,75	2414,90
321,22	2404,90
321,69	2405,60
322,16	2377,50
322,64	2388,60
323,11	2421,90
323,58	2399,00
324,05	2428,00
324,52	2385,60
324,99	2401,50
325,46	2393,90
325,94	2400,00
326,41	2393,60
326,88	2403,50
327,35	2408,80
327,82	2406,80
328,29	2406,10
328,76	2397,80
329,23	2396,40
329,70	2396,80
330,18	2392,40
330,65	2385,80
331,12	2413,20
331,59	2401,80
332,06	2419,40
332,53	2389,60
333,00	2421,40
333,47	2406,10
333,94	2404,10
334,41	2416,00
334,88	2400,80
335,35	2406,60
335,83	2438,00
336,30	2390,40
336,77	2399,60
337,24	2398,00
337,71	2403,00
338,18	2395,70
338,65	2397,90
339,12	2418,20
339,59	2409,70
340,06	2388,10
340,53	2397,50
341,00	2390,90
341,47	2404,20
341,94	2413,40
342,41	2395,00
342,88	2403,70
343,35	2407,40
343,82	2406,70
344,29	2396,00
344,76	2404,10
345,23	2398,20
345,70	2400,10
346,17	2407,90
346,64	2393,10
347,11	2395,40
347,58	2419,60
348,05	2391,20
348,52	2416,40
348,99	2398,20
349,46	2381,50
349,93	2398,80
350,40	2407,50
350,87	2400,00
351,34	2388,80
351,81	2402,80
352,28	2420,90
352,75	2406,30
353,22	2396,80
353,69	2405,60
354,16	2409,60
354,63	2401,40
355,10	2403,10
355,57	2401,20
356,04	2415,30
356,51	2393,90
356,98	2422,80
357,45	2391,00
357,92	2427,30
358,39	2409,10
358,86	2393,40
359,33	2392,10
359,80	2392,70
360,27	2394,80
360,74	2412,70
361,20	2413,70
361,67	2399,90
362,14	2397,10
362,61	2403,00
363,08	2395,60
363,55	2403,10
364,02	2429,40
364,49	2408,90
364,96	2397,50
365,43	2413,00
365,90	2398,40
366,37	2389,30
366,83	2401,50
367,30	2399,10
367,77	2712,60
368,24	2381,60
368,71	2394,60
369,18	2413,40
369,65	2390,90
370,12	2411,90
370,59	2401,60
371,05	2394,00
371,52	2396,80
371,99	2402,20
372,46	2396,20
372,93	2384,60
373,40	2400,40
373,87	2398,10
374,33	2394,80
374,80	2388,00
375,27	2400,40
375,74	2388,30
376,21	2414,40
376,68	2391,80
377,15	2393,50
377,61	2392,30
378,08	2398,50
378,55	2405,10
379,02	2400,00
379,49	2400,60
379,96	2400,50
380,42	2407,70
380,89	2417,30
381,36	2404,20
381,83	2418,00
382,30	2417,90
382,76	2383,80
383,23	2408,30
383,70	2394,50
384,17	2408,70
384,64	2402,00
385,10	2463,80
385,57	2404,10
386,04	2396,50
386,51	2394,60
386,98	2423,50
387,44	2392,20
387,91	2385,20
388,38	2408,30
388,85	2401,90
389,31	2413,40
389,78	2390,90
390,25	2404,10
390,72	2400,50
391,19	2407,70
391,65	2400,80
392,12	2396,80
392,59	2407,60
393,06	2394,30
393,52	2403,00
393,99	2428,00
394,46	2400,60
394,93	2416,10
395,39	2390,60
395,86	2404,80
396,33	2454,70
396,80	2388,70
397,26	2404,60
397,73	2409,60
398,20	2385,70
398,66	2401,20
399,13	2395,10
399,60	2391,90
400,07	2407,70
400,53	2385,30
401,00	2401,30
401,47	2391,30
401,93	2407,50
402,40	2397,20
402,87	2401,20
403,34	2393,10
403,80	2414,40
404,27	2402,70
404,74	2423,20
405,20	2427,60
405,67	2417,40
406,14	2394,30
406,60	2406,20
407,07	2404,00
407,54	2425,70
408,00	2402,80
408,47	2402,90
408,94	2403,90
409,40	2384,40
409,87	2414,00
410,34	2391,90
410,80	2408,80
411,27	2392,30
411,74	2416,60
412,20	2397,10
412,67	2380,00
413,14	2400,40
413,60	2397,60
414,07	2405,80
414,53	2403,20
415,00	2419,80
415,47	2396,20
415,93	2414,20
416,40	2405,00
416,87	2397,20
417,33	2425,30
417,80	2406,10
418,26	2399,50
418,73	2399,60
419,20	2400,90
419,66	2409,60
420,13	2395,20
420,59	2407,90
421,06	2386,70
421,53	2401,10
421,99	2395,30
422,46	2408,60
422,92	2387,40
423,39	2393,00
423,86	2403,30
424,32	2407,60
424,79	2401,60
425,25	2411,40
425,72	2401,10
426,18	2417,00
426,65	2395,30
427,11	2413,80
427,58	2411,00
428,05	2409,00
428,51	2388,00
428,98	2411,80
429,44	2406,90
429,91	2397,00
430,37	2403,80
430,84	2432,80
431,30	2384,30
431,77	2394,50
432,23	2414,50
432,70	2418,80
433,17	2392,40
433,63	2392,30
434,10	2404,90
434,56	2393,40
435,03	2407,40
435,49	2387,90
435,96	2409,50
436,42	2399,90
436,89	2390,00
437,35	2410,10
437,82	2405,30
438,28	2403,60
438,75	2394,30
439,21	2395,30
439,68	2446,70
440,14	2408,20
440,61	2409,40
441,07	2418,40
441,54	2397,60
442,00	2403,20
442,47	2431,40
442,93	2385,00
443,39	2400,40
443,86	2397,10
444,32	2390,00
444,79	2421,30
445,25	2404,10
445,72	2408,70
446,18	2396,00
446,65	2404,30
447,11	2398,20
447,58	2397,00
448,04	2396,20
448,50	2393,20
448,97	2409,50
449,43	2405,20
449,90	2404,40
450,36	2393,80
450,83	2388,40
451,29	2393,20
451,75	2402,60
452,22	2409,70
452,68	2386,30
453,15	2407,40
453,61	2401,00
454,08	2400,40
454,54	2399,30
455,00	2404,30
455,47	2393,00
455,93	2400,50
456,40	2406,80
456,86	2395,00
457,32	2411,90
457,79	2397,80
458,25	2399,70
458,71	2389,40
459,18	2409,90
459,64	2398,50
460,11	2397,70
460,57	2393,40
461,03	2384,90
461,50	2416,40
461,96	2407,00
462,42	2393,30
462,89	2384,50
463,35	2413,50
463,81	2398,10
464,28	2405,50
464,74	2404,00
465,21	2385,90
465,67	2389,20
466,13	2408,40
466,60	2400,20
467,06	2399,30
467,52	2397,80
467,99	2397,10
468,45	2402,30
468,91	2399,90
469,37	2395,90
469,84	2391,90
470,30	2398,20
470,76	2403,00
471,23	2394,80
471,69	2391,20
472,15	2390,20
472,62	2396,00
473,08	2400,90
473,54	2415,90
474,01	2395,90
474,47	2388,10
474,93	2394,10
475,39	2385,20
475,86	2404,70
476,32	2396,80
476,78	2405,70
477,25	2400,00
477,71	2396,80
478,17	2415,50
478,63	2404,50
479,10	2411,50
479,56	2389,10
480,02	2416,40
480,48	2406,00
480,95	2403,80
481,41	2395,00
481,87	2400,10
482,33	2400,00
482,80	2397,30
483,26	2397,20
483,72	2386,70
484,18	2394,80
484,65	2419,30
485,11	2399,70
485,57	2397,20
486,03	2380,10
486,49	2401,80
486,96	2383,80
487,42	2403,20
487,88	2390,10
488,34	2379,90
488,80	2392,40
489,27	2400,90
489,73	2399,60
490,19	2413,80
490,65	2382,00
491,11	2399,10
491,58	2384,30
492,04	2388,30
492,50	2382,70
492,96	2406,30
493,42	2397,40
493,89	2397,20
494,35	2389,10
494,81	2392,10
495,27	2387,90
495,73	2388,50
496,19	2398,00
496,66	2396,80
497,12	2394,80
497,58	2416,60
498,04	2409,20
498,50	2390,80
498,96	2400,70
499,43	2394,60
499,89	2426,00
500,35	2398,10
500,81	2393,80
501,27	2399,60
501,73	2391,30
502,19	2403,30
502,65	2399,00
503,12	2398,60
503,58	2401,90
504,04	2400,30
504,50	2390,80
504,96	2400,20
505,42	2398,70
505,88	2390,00
506,34	2391,80
506,80	2406,10
507,27	2392,70
507,73	2404,00
508,19	2403,40
508,65	2391,90
509,11	2384,30
509,57	2387,10
510,03	2396,00
510,49	2398,40
510,95	2395,50
511,41	2411,90
511,87	2412,90
512,33	2389,60
512,80	2380,00
513,26	2393,70
513,72	2403,90
514,18	2381,90
514,64	2409,50
515,10	2424,70
515,56	2377,30
516,02	2396,40
516,48	2407,40
516,94	2408,90
517,40	2431,20
517,86	2404,20
518,32	2393,20
518,78	2444,00
519,24	2398,70
519,70	2385,80
520,16	2385,70
520,62	2391,20
521,08	2404,20
521,54	2402,10
522,00	2406,90
522,46	2395,20
522,92	2384,30
523,38	2424,50
523,84	2406,30
524,30	2388,80
524,76	2416,60
525,22	2404,20
525,68	2404,80
526,14	2410,70
526,60	2399,40
527,06	2399,00
527,52	2394,10
527,98	2394,40
528,44	2404,50
528,90	2402,50
529,36	2398,10
529,82	2388,00
530,28	2405,50
530,74	2403,50
531,20	2383,00
531,66	2411,50
532,12	2398,30
532,58	2399,30
533,04	2394,20
533,50	2402,30
533,96	2391,00
534,42	2382,30
534,88	2398,30
535,33	2390,70
535,79	2394,70
536,25	2394,80
536,71	2403,60
537,17	2389,10
537,63	2402,90
538,09	2392,60
538,55	2396,00
539,01	2418,30
539,47	2406,50
539,93	2457,00
540,39	2382,60
540,84	2416,40
541,30	2398,30
541,76	2387,10
542,22	2403,00
542,68	2404,80
543,14	2391,10
543,60	2430,30
544,06	2384,30
544,52	2429,10
544,97	2409,30
545,43	2395,20
545,89	2393,00
546,35	2414,40
546,81	2392,80
547,27	2400,40
547,73	2403,60
548,19	2406,80
548,64	2400,10
549,10	2397,80
549,56	2389,80
550,02	2423,30
550,48	2394,50
550,94	2384,80
551,39	2403,60
551,85	2395,80
552,31	2424,60
552,77	2396,90
553,23	2394,00
553,69	2400,60
554,14	2397,30
554,60	2391,70
555,06	2396,20
555,52	2402,80
555,98	2420,90
556,43	2397,30
556,89	2413,00
557,35	2383,60
557,81	2401,30
558,27	2420,40
558,72	2390,80
559,18	2392,00
559,64	2391,10
560,10	2390,00
560,56	2386,90
561,01	2397,00
561,47	2394,30
561,93	2395,40
562,39	2390,80
562,85	2388,10
563,30	2401,40
563,76	2403,30
564,22	2390,20
564,68	2404,70
565,13	2390,10
565,59	2395,10
566,05	2392,60
566,51	2407,80
566,96	2389,70
567,42	2385,30
567,88	2399,70
568,34	2408,90
568,79	2395,50
569,25	2390,60
569,71	2406,50
570,16	2396,00
570,62	2395,90
571,08	2410,30
571,54	2405,50
571,99	2396,00
572,45	2400,50
572,91	2399,00
573,36	2387,30
573,82	2388,40
574,28	2402,10
574,74	2411,50
575,19	2405,40
575,65	2389,30
576,11	2402,10
576,56	2379,30
577,02	2414,50
577,48	2392,50
577,93	2395,50
578,39	2384,50
578,85	2414,90
579,30	2404,40
579,76	2391,10
580,22	2399,20
580,67	2400,20
581,13	2398,10
581,59	2391,60
582,04	2394,90
582,50	2399,10
582,96	2383,00
583,41	2393,00
583,87	2396,60
584,33	2397,30
584,78	2406,90
585,24	2393,40
585,69	2426,40
586,15	2393,80
586,61	2401,40
587,06	2400,40
587,52	2398,50
587,98	2406,30
588,43	2386,40
588,89	2403,70
589,34	2393,90
589,80	2392,40
590,26	2399,80
590,71	2408,30
591,17	2396,10
591,62	2383,10
592,08	2411,00
592,54	2395,00
592,99	2394,00
593,45	2395,20
593,90	2405,20
594,36	2394,80
594,81	2395,20
595,27	2411,40
595,73	2393,60
596,18	2383,10
596,64	2411,50
597,09	2406,00
597,55	2410,60
598,00	2401,80
598,46	2386,20
598,92	2394,20
599,37	2405,40
599,83	2392,60
600,28	2404,30
600,74	2406,30
601,19	2404,80
601,65	2406,20
602,10	2382,10
602,56	2436,30
603,01	2388,00
603,47	2395,80
603,92	2382,10
604,38	2377,50
604,83	2404,70
605,29	2393,30
605,74	2408,60
606,20	2393,00
606,65	2380,30
607,11	2395,00
607,56	2394,90
608,02	2394,60
608,47	2401,50
608,93	2402,00
609,38	2428,20
609,84	2409,20
610,29	2397,80
610,75	2391,70
611,20	2404,20
611,66	2383,40
612,11	2417,90
612,57	2406,50
613,02	2396,30
613,48	2433,00
613,93	2383,40
614,39	2382,80
614,84	2383,20
615,30	2387,60
615,75	2396,00
616,20	2395,40
616,66	2385,20
617,11	2393,40
617,57	2394,70
618,02	2403,60
618,48	2390,10
618,93	2389,00
619,38	2391,40
619,84	2406,30
620,29	2392,50
620,75	2403,40
621,20	2411,60
621,66	2393,00
622,11	2407,50
622,56	2411,30
623,02	2406,70
623,47	2387,70
623,93	2392,20
624,38	2410,30
624,83	2381,20
625,29	2392,10
625,74	2402,10
626,20	2387,20
626,65	2394,40
627,10	2401,00
627,56	2393,10
628,01	2401,30
628,46	2405,30
628,92	2376,50
629,37	2396,10
629,82	2395,20
630,28	2389,80
630,73	2400,70
631,19	2396,10
631,64	2408,60
632,09	2394,80
632,55	2411,50
633,00	2387,40
633,45	2392,50
633,91	2390,00
634,36	2394,30
634,81	2383,50
635,27	2390,10
635,72	2388,60
636,17	2381,10
636,63	2401,00
637,08	2401,90
637,53	2389,80
637,99	2407,20
638,44	2404,80
638,89	2386,50
639,34	2394,30
639,80	2383,50
640,25	2382,60
640,70	2400,30
641,16	2407,80
641,61	2384,90
642,06	2388,60
642,51	2398,20
642,97	2381,10
643,42	2385,90
643,87	2400,60
644,33	2391,50
644,78	2387,30
645,23	2392,60
645,68	2386,60
646,14	2390,70
646,59	2395,80
647,04	2397,10
647,49	2402,00
647,95	2394,30
648,40	2398,80
648,85	2377,30
649,30	2407,10
649,76	2398,30
650,21	2444,50
650,66	2389,60
651,11	2388,50
651,57	2386,80
652,02	2398,50
652,47	2379,00
652,92	2394,20
653,37	2389,00
653,83	2390,70
654,28	2399,10
654,73	2395,40
655,18	2389,80
655,63	2384,60
656,09	2403,10
656,54	2385,80
656,99	2397,50
657,44	2401,50
657,89	2405,10
658,35	2385,30
658,80	2394,10
659,25	2389,80
659,70	2448,60
660,15	2387,50
660,60	2402,90
661,06	2397,30
661,51	2388,80
661,96	2391,50
662,41	2380,90
662,86	2380,60
663,31	2401,20
663,77	2390,50
664,22	2385,40
664,67	2394,00
665,12	2379,20
665,57	2391,70
666,02	2380,20
666,47	2398,10
666,93	2400,40
667,38	2422,40
667,83	2402,30
668,28	2384,40
668,73	2397,80
669,18	2387,10
669,63	2423,60
670,08	2374,10
670,53	2384,40
670,99	2406,90
671,44	2390,60
671,89	2420,00
672,34	2421,80
672,79	2392,90
673,24	2394,50
673,69	2409,70
674,14	2438,90
674,59	2397,90
675,04	2403,60
675,49	2383,00
675,95	2383,70
676,40	2401,20
676,85	2395,40
677,30	2395,50
677,75	2395,60
678,20	2427,30
678,65	2384,90
679,10	2393,40
679,55	2402,40
680,00	2389,60
680,45	2394,30
680,90	2395,90
681,35	2372,60
681,80	2369,40
682,25	2396,00
682,70	2395,00
683,15	2398,80
683,60	2404,30
684,05	2401,80
684,50	2405,60
684,95	2393,70
685,40	2401,00
685,85	2398,90
686,30	2394,10
686,75	2384,00
687,20	2397,90
687,65	2391,40
688,10	2395,60
688,55	2396,90
689,00	2431,00
689,45	2398,20
689,90	2377,30
690,35	2391,40
690,80	2387,60
691,25	2379,00
691,70	2397,20
692,15	2380,60
692,60	2396,10
693,05	2388,60
693,50	2399,60
693,95	2404,20
694,40	2397,90
694,85	2395,90
695,30	2450,60
695,75	2396,00
696,20	2395,30
696,65	2417,20
697,10	2398,00
697,55	2390,20
698,00	2398,60
698,45	2384,30
698,90	2396,90
699,34	2400,80
699,79	2379,70
700,24	2394,20
700,69	2403,60
701,14	2399,90
701,59	2439,40
702,04	2376,90
702,49	2414,40
702,94	2384,60
703,39	2388,50
703,84	2395,90
704,28	2393,30
704,73	2388,80
705,18	2407,00
705,63	2408,20
706,08	2404,00
706,53	2380,00
706,98	2405,10
707,43	2393,40
707,87	2392,10
708,32	2403,20
708,77	2409,60
709,22	2396,60
709,67	2391,50
710,12	2394,80
710,57	2392,40
711,01	2385,50
711,46	2400,30
711,91	2395,50
712,36	2392,90
712,81	2382,80
713,26	2421,20
713,71	2390,00
714,15	2394,80
714,60	2413,60
715,05	2405,50
715,50	2392,20
715,95	2398,50
716,39	2386,10
716,84	2395,90
717,29	2383,10
717,74	2381,10
718,19	2399,00
718,63	2416,40
719,08	2382,80
719,53	2382,00
719,98	2393,90
720,43	2390,10
720,87	2388,20
721,32	2395,20
721,77	2386,50
722,22	2399,20
722,67	2390,50
723,11	2380,60
723,56	2377,20
724,01	2397,90
724,46	2374,00
724,90	2403,10
725,35	2381,00
725,80	2397,70
726,25	2393,80
726,69	2393,80
727,14	2418,30
727,59	2385,90
728,04	2408,20
728,48	2408,00
728,93	2389,30
729,38	2405,20
729,83	2387,10
730,27	2402,90
730,72	2383,60
731,17	2398,60
731,61	2401,00
732,06	2399,60
732,51	2392,90
732,96	2381,80
733,40	2403,50
733,85	2394,10
734,30	2390,00
734,74	2401,50
735,19	2402,70
735,64	2397,40
736,09	2428,90
736,53	2386,80
736,98	2394,80
737,43	2400,10
737,87	2400,90
738,32	2393,50
738,77	2396,30
739,21	2392,80
739,66	2380,30
740,11	2412,00
740,55	2395,30
741,00	2388,20
741,45	2399,50
741,89	2403,30
742,34	2392,30
742,79	2395,90
743,23	2383,90
743,68	2386,10
744,12	2389,10
744,57	2408,30
745,02	2405,40
745,46	2403,50
745,91	2403,40
746,36	2407,40
746,80	2373,40
747,25	2383,90
747,69	2378,00
748,14	2402,50
748,59	2395,80
749,03	2388,40
749,48	2398,50
749,92	2425,70
750,37	2389,60
750,82	2392,00
751,26	2384,70
751,71	2388,10
752,15	2388,30
752,60	2386,60
753,05	2418,10
753,49	2387,80
753,94	2389,40
754,38	2382,60
754,83	2388,80
755,27	2384,70
755,72	2393,00
756,17	2395,40
756,61	2409,30
757,06	2392,20
757,50	2409,00
757,95	2397,40
758,39	2393,00
758,84	2388,30
759,28	2394,20
759,73	2388,80
760,17	2387,00
760,62	2396,90
761,07	2398,20
761,51	2401,70
761,96	2413,10
762,40	2391,20
762,85	2381,30
763,29	2394,20
763,74	2401,20
764,18	2391,20
764,63	2381,40
765,07	2387,90
765,52	2396,30
765,96	2383,10
766,41	2381,20
766,85	2386,20
767,30	2392,50
767,74	2400,00
768,19	2398,90
768,63	2392,90
769,07	2395,80
769,52	2419,90
769,96	2386,70
770,41	2395,70
770,85	2386,30
771,30	2386,00
771,74	2397,40
772,19	2399,80
772,63	2395,40
773,08	2381,50
773,52	2388,00
773,97	2389,50
774,41	2375,90
774,85	2394,90
775,30	2384,30
775,74	2398,50
776,19	2399,10
776,63	2384,30
777,08	2389,90
777,52	2392,40
777,96	2397,00
778,41	2405,00
778,85	2390,90
779,30	2394,50
779,74	2431,90
780,18	2407,70
780,63	2392,70
781,07	2406,70
781,52	2398,30
781,96	2385,00
782,40	2394,60
782,85	2386,30
783,29	2391,10
783,74	2399,80
784,18	2402,40
784,62	2393,80
785,07	2394,40
785,51	2394,00
785,95	2382,10
786,40	2401,20
786,84	2410,00
787,28	2408,60
787,73	2380,50
788,17	2384,40
788,61	2398,90
789,06	2385,60
789,50	2387,00
789,94	2385,60
790,39	2394,10
790,83	2383,20
791,27	2385,90
791,72	2408,20
792,16	2387,10
792,60	2398,70
793,05	2392,20
793,49	2452,70
793,93	2406,20
794,38	2397,30
794,82	2399,30
795,26	2395,70
795,71	2382,10
796,15	2395,80
796,59	2394,00
797,03	2395,60
797,48	2389,20
797,92	2380,90
798,36	2397,60
798,81	2409,80
799,25	2394,60
799,69	2386,90
800,13	2413,50
800,58	2397,70
801,02	2389,90
801,46	2391,30
801,90	2399,70
802,35	2386,70
802,79	2408,80
803,23	2415,20
803,67	2406,70
804,12	2398,10
804,56	2396,10
805,00	2389,40
805,44	2417,40
805,89	2424,20
806,33	2417,00
806,77	2406,10
807,21	2422,70
807,66	2385,80
808,10	2398,80
808,54	2391,30
808,98	2396,80
809,42	2392,70
809,87	2384,70
810,31	2386,20
810,75	2393,60
811,19	2407,80
811,63	2440,40
812,08	2388,10
812,52	2389,80
812,96	2403,40
813,40	2412,80
813,84	2402,60
814,28	2399,20
814,73	2409,20
815,17	2404,80
815,61	2398,90
816,05	2391,30
816,49	2384,90
816,93	2390,10
817,38	2404,70
817,82	2393,40
818,26	2407,90
818,70	2392,90
819,14	2404,50
819,58	2413,50
820,03	2389,90
820,47	2397,40
820,91	2390,10
821,35	2397,10
821,79	2386,40
822,23	2415,20
822,67	2386,90
823,11	2392,80
823,55	2402,10
824,00	2382,50
824,44	2400,20
824,88	2391,30
825,32	2395,00
825,76	2399,50
826,20	2391,90
826,64	2392,00
827,08	2379,90
827,52	2391,30
827,96	2406,50
828,41	2404,20
828,85	2386,50
829,29	2406,90
829,73	2396,50
830,17	2386,90
830,61	2416,30
831,05	2394,80
831,49	2426,50
831,93	2408,20
832,37	2401,50
832,81	2381,30
833,25	2397,30
833,69	2390,30
834,13	2414,50
834,57	2402,40
835,01	2392,10
835,45	2385,40
835,89	2411,30
836,33	2394,20
836,77	2400,80
837,22	2388,10
837,66	2419,30
838,10	2389,50
838,54	2388,90
838,98	2397,70
839,42	2400,70
839,86	2417,00
840,30	2426,40
840,74	2403,20
841,18	2411,40
841,62	2375,30
842,06	2384,20
842,50	2380,40
842,94	2392,80
843,37	2405,20
843,81	2396,10
844,25	2403,20
844,69	2393,30
845,13	2385,20
845,57	2402,00
846,01	2388,40
846,45	2405,20
846,89	2389,10
847,33	2389,70
847,77	2398,60
848,21	2391,20
848,65	2391,50
849,09	2392,30
849,53	2401,80
849,97	2411,00
850,41	2408,70
850,85	2389,40
851,29	2408,30
851,73	2385,10
852,16	2400,40
852,60	2407,30
853,04	2388,70
853,48	2389,60
853,92	2405,60
854,36	2379,40
854,80	2408,10
855,24	2382,50
855,68	2387,10
856,12	2406,90
856,55	2408,90
856,99	2397,00
857,43	2400,20
857,87	2399,30
858,31	2390,10
858,75	2409,50
859,19	2378,20
859,63	2387,00
860,06	2389,90
860,50	2387,70
860,94	2394,90
861,38	2406,00
861,82	2388,70
862,26	2396,60
862,70	2405,00
863,13	2386,40
863,57	2392,60
864,01	2403,30
864,45	2386,90
864,89	2397,20
865,33	2394,30
865,76	2378,60
866,20	2390,80
866,64	2376,30
867,08	2395,30
867,52	2387,10
867,96	2398,00
868,39	2394,10
868,83	2387,80
869,27	2405,00
869,71	2384,90
870,15	2420,50
870,58	2424,80
871,02	2387,30
871,46	2391,70
871,90	2396,20
872,34	2388,60
872,77	2397,10
873,21	2398,80
873,65	2391,80
874,09	2409,30
874,52	2401,60
874,96	2387,30
875,40	2382,20
875,84	2406,30
876,27	2373,50
876,71	2397,00
877,15	2388,70
877,59	2397,30
878,02	2394,80
878,46	2395,90
878,90	2399,30
879,34	2392,00
879,77	2420,20
880,21	2386,80
880,65	2380,80
881,09	2390,60
881,52	2396,70
881,96	2399,80
882,40	2391,40
882,83	2390,70
883,27	2392,70
883,71	2390,70
884,14	2383,10
884,58	2403,70
885,02	2394,00
885,46	2400,70
885,89	2397,60
886,33	2387,50
886,77	2387,30
887,20	2416,70
887,64	2378,50
888,08	2386,10
888,51	2395,00
888,95	2394,00
889,39	2438,20
889,82	2381,60
890,26	2401,30
890,70	2388,40
891,13	2400,10
891,57	2400,90
892,01	2379,00
892,44	2390,90
892,88	2392,50
893,31	2382,90
893,75	2390,90
894,19	2400,50
894,62	2388,80
895,06	2398,50
895,50	2393,20
895,93	2386,30
896,37	2392,90
896,80	2403,50
897,24	2383,60
897,68	2383,60
898,11	2393,90
898,55	2396,40
898,98	2409,60
899,42	2390,30
899,86	2385,20
900,29	2393,70
900,73	2402,90
901,16	2398,30
901,60	2392,10
902,04	2422,40
902,47	2418,60
902,91	2388,00
903,34	2389,90
903,78	2415,70
904,21	2387,10
904,65	2399,00
905,09	2386,70
905,52	2393,90
905,96	2383,00
906,39	2404,40
906,83	2391,40
907,26	2407,40
907,70	2399,00
908,13	2401,00
908,57	2403,10
909,00	2411,80
909,44	2386,70
909,87	2383,50
910,31	2401,90
910,74	2399,90
911,18	2397,40
911,62	2386,60
912,05	2387,90
912,49	2395,70
912,92	2390,90
913,36	2401,70
913,79	2400,90
914,22	2394,20
914,66	2384,00
915,09	2382,90
915,53	2387,40
915,96	2388,20
916,40	2406,90
916,83	2388,30
917,27	2408,50
917,70	2388,40
918,14	2404,30
918,57	2390,60
919,01	2394,50
919,44	2394,40
919,88	2403,10
920,31	2408,40
920,75	2401,10
921,18	2414,20
921,61	2403,20
922,05	2393,50
922,48	2387,80
922,92	2385,30
923,35	2396,30
923,79	2416,50
924,22	2401,20
924,65	2382,30
925,09	2403,90
925,52	2383,60
925,96	2407,60
926,39	2423,50
926,82	2389,10
927,26	2402,80
927,69	2382,20
928,13	2420,90
928,56	2394,80
928,99	2384,30
929,43	2408,30
929,86	2391,80
930,30	2395,10
930,73	2403,90
931,16	2388,20
931,60	2399,80
932,03	2377,80
932,46	2417,30
932,90	2408,40
933,33	2429,90
933,76	2393,70
934,20	2411,80
934,63	2407,10
935,07	2405,20
935,50	2398,70
935,93	2381,20
936,37	2392,20
936,80	2387,20
937,23	2393,90
937,67	2388,70
938,10	2406,80
938,53	2386,50
938,96	2389,20
939,40	2401,00
939,83	2389,30
940,26	2398,10
940,70	2407,90
941,13	2421,60
941,56	2389,40
942,00	2407,60
942,43	2387,90
942,86	2390,30
943,29	2401,20
943,73	2382,30
944,16	2381,70
944,59	2404,30
945,03	2398,30
945,46	2401,80
945,89	2391,50
946,32	2400,70
946,76	2400,20
947,19	2412,40
947,62	2394,10
948,05	2394,90
948,49	2402,30
948,92	2385,10
949,35	2385,70
949,78	2385,90
950,22	2430,80
950,65	2407,90
951,08	2391,10
951,51	2392,40
951,95	2405,70
952,38	2378,90
952,81	2402,30
953,24	2393,60
953,67	2416,10
954,11	2382,90
954,54	2388,00
954,97	2392,00
955,40	2395,10
955,83	2389,40
956,27	2394,80
956,70	2384,80
957,13	2400,00
957,56	2434,20
957,99	2384,40
958,43	2400,60
958,86	2392,90
959,29	2390,70
959,72	2393,10
960,15	2387,00
960,58	2373,40
961,02	2390,50
961,45	2399,70
961,88	2402,50
962,31	2408,70
962,74	2402,50
963,17	2388,50
963,61	2394,50
964,04	2392,50
964,47	2397,00
964,90	2395,90
965,33	2388,20
965,76	2403,40
966,19	2392,70
966,62	2397,80
967,06	2397,50
967,49	2390,60
967,92	2390,40
968,35	2404,10
968,78	2450,40
969,21	2402,50
969,64	2399,60
970,07	2399,30
970,50	2387,60
970,93	2395,50
971,37	2397,60
971,80	2386,10
972,23	2391,60
972,66	2384,50
973,09	2388,80
973,52	2389,80
973,95	2403,90
974,38	2398,90
974,81	2401,90
975,24	2399,30
975,67	2389,60
976,10	2394,70
976,53	2390,30
976,96	2399,60
977,39	2380,60
977,82	2399,70
978,26	2396,40
978,69	2394,90
979,12	2392,60
979,55	2393,40
979,98	2409,30
980,41	2401,40
980,84	2386,40
981,27	2395,90
981,70	2408,90
982,13	2397,10
982,56	2389,40
982,99	2387,40
983,42	2390,80
983,85	2388,80
984,28	2404,00
984,71	2404,90
985,14	2385,00
985,57	2374,20
986,00	2395,50
986,43	2402,10
986,86	2397,20
987,29	2389,30
987,72	2400,80
988,15	2394,60
988,57	2397,20
989,00	2396,20
989,43	2395,60
989,86	2391,40
990,29	2392,50
990,72	2402,00
991,15	2399,30
991,58	2400,00
992,01	2419,70
992,44	2390,10
992,87	2389,80
993,30	2393,30
993,73	2386,50
994,16	2388,80
994,59	2395,00
995,02	2402,90
995,44	2397,50
995,87	2398,00
996,30	2382,90
996,73	2383,30
997,16	2376,30
997,59	2413,90
998,02	2402,80
998,45	2390,50
998,88	2397,60
999,31	2389,90
999,73	2418,10
1000,16	2393,70
1000,59	2402,60
1001,02	2409,10
1001,45	2385,60
1001,88	2393,00
1002,31	2406,80
1002,74	2394,10
1003,16	2402,80
1003,59	2389,20
1004,02	2401,80
1004,45	2386,70
1004,88	2398,50
1005,31	2396,40
1005,73	2416,40
1006,16	2392,90
1006,59	2383,50
1007,02	2402,40
1007,45	2392,10
1007,88	2390,10
1008,30	2386,30
1008,73	2398,40
1009,16	2393,60
1009,59	2441,70
1010,02	2405,50
1010,44	2398,90
1010,87	2404,10
1011,30	2399,60
1011,73	2413,50
1012,16	2402,90
1012,58	2403,60
1013,01	2400,10
1013,44	2402,50
1013,87	2401,40
1014,30	2393,20
1014,72	2412,10
1015,15	2382,70
1015,58	2405,90
1016,01	2386,40
1016,43	2393,60
1016,86	2388,60
1017,29	2399,60
1017,72	2390,50
1018,14	2614,80
1018,57	2391,60
1019,00	2382,70
1019,43	2432,40
1019,85	2411,20
1020,28	2404,50
1020,71	2391,50
1021,14	2397,20
1021,56	2397,80
1021,99	2397,60
1022,42	2401,60
1022,84	2393,60
1023,27	2444,20
1023,70	2417,90
1024,13	2405,50
1024,55	2401,20
1024,98	2401,30
1025,41	2403,70
1025,83	2407,50
1026,26	2389,10
1026,69	2381,70
1027,11	2426,90
1027,54	2402,40
1027,97	2404,70
1028,39	2398,30
1028,82	2403,40
1029,25	2389,30
1029,67	2421,90
1030,10	2394,70
1030,53	2392,20
1030,95	2403,30
1031,38	2412,60
1031,81	2382,70
1032,23	2399,10
1032,66	2404,10
1033,09	2395,40
1033,51	2410,20
1033,94	2385,40
1034,37	2385,20
1034,79	2402,20
1035,22	2400,70
1035,64	2389,30
1036,07	2421,60
1036,50	2389,30
1036,92	2385,50
1037,35	2393,10
1037,77	2380,30
1038,20	2408,90
1038,63	2405,80
1039,05	2398,60
1039,48	2413,20
1039,90	2413,30
1040,33	2393,00
1040,76	2393,50
1041,18	2401,20
1041,61	2395,70
1042,03	2410,50
1042,46	2415,00
1042,88	2406,20
1043,31	2407,80
1043,74	2398,70
1044,16	2405,30
1044,59	2388,90
1045,01	2399,40
1045,44	2392,80
1045,86	2393,90
1046,29	2406,00
1046,71	2407,60
1047,14	2388,00
1047,56	2399,70
1047,99	2411,00
1048,42	2384,60
1048,84	2410,60
1049,27	2404,10
1049,69	2411,40
1050,12	2396,40
1050,54	2395,90
1050,97	2401,80
1051,39	2412,00
1051,82	2409,30
1052,24	2415,80
1052,67	2391,30
1053,09	2406,50
1053,52	2379,20
1053,94	2402,20
1054,37	2382,10
1054,79	2397,80
1055,22	2389,70
1055,64	2404,00
1056,06	2401,30
1056,49	2420,60
1056,91	2412,00
1057,34	2408,20
1057,76	2396,90
1058,19	2448,20
1058,61	2392,30
1059,04	2402,00
1059,46	2410,60
1059,89	2400,20
1060,31	2394,90
1060,73	2391,40
1061,16	2408,00
1061,58	2402,80
1062,01	2392,00
1062,43	2408,20
1062,86	2417,90
1063,28	2398,20
1063,70	2400,60
1064,13	2388,10
1064,55	2411,70
1064,98	2409,20
1065,40	2393,90
1065,82	2386,80
1066,25	2385,80
1066,67	2408,50
1067,10	2399,60
1067,52	2397,60
1067,94	2406,40
1068,37	2396,10
1068,79	2422,50
1069,21	2399,20
1069,64	2394,30
1070,06	2383,90
1070,48	2408,20
1070,91	2417,00
1071,33	2406,70
1071,76	2398,70
1072,18	2405,90
1072,60	2389,10
1073,03	2390,70
1073,45	2388,20
1073,87	2405,90
1074,30	2396,00
1074,72	2386,00
1075,14	2393,60
1075,57	2393,90
1075,99	2398,80
1076,41	2389,50
1076,84	2391,30
1077,26	2394,90
1077,68	2412,70
1078,10	2395,10
1078,53	2405,80
1078,95	2413,30
1079,37	2380,80
1079,80	2400,30
1080,22	2395,10
1080,64	2396,60
1081,06	2405,10
1081,49	2399,00
1081,91	2397,10
1082,33	2402,70
1082,76	2395,10
1083,18	2393,90
1083,60	2404,50
1084,02	2398,70
1084,45	2410,60
1084,87	2398,40
1085,29	2398,30
1085,71	2410,60
1086,14	2387,60
1086,56	2395,30
1086,98	2404,00
1087,40	2382,80
1087,83	2401,30
1088,25	2802,40
1088,67	2402,50
1089,09	2391,00
1089,51	2389,50
1089,94	2394,70
1090,36	2408,70
1090,78	2394,20
1091,20	2384,70
1091,62	2403,50
1092,05	2396,70
1092,47	2396,00
1092,89	2398,40
1093,31	2391,20
1093,73	2395,20
1094,16	2396,10
1094,58	2394,90
1095,00	2401,10
1095,42	2394,40
1095,84	2390,90
1096,26	2399,80
1096,69	2402,00
1097,11	2385,20
1097,53	2396,00
1097,95	2390,70
1098,37	2409,40
1098,79	2401,90
1099,22	2409,80
1099,64	2400,30
1100,06	2398,20
1100,48	2390,00
1100,90	2393,60
1101,32	2390,50
1101,74	2396,80
1102,16	2387,50
1102,59	2393,30
1103,01	2388,10
1103,43	2392,00
1103,85	2404,40
1104,27	2388,80
1104,69	2414,10
1105,11	2383,30
1105,53	2401,20
1105,95	2395,20
1106,38	2392,10
1106,80	2396,70
1107,22	2377,80
1107,64	2382,50
1108,06	2406,80
1108,48	2382,70
1108,90	2399,40
1109,32	2398,10
1109,74	2401,10
1110,16	2379,20
1110,58	2389,70
1111,00	2382,90
1111,42	2387,30
1111,84	2376,70
1112,26	2381,10
1112,68	2375,80
1113,11	2392,30
1113,53	2377,40
1113,95	2390,50
1114,37	2386,10
1114,79	2398,50
1115,21	2388,70
1115,63	2390,70
1116,05	2385,90
1116,47	2401,60
1116,89	2392,70
1117,31	2386,80
1117,73	2373,30
1118,15	2192,10
1118,57	2198,50
1118,99	2195,70
1119,41	2196,30
>>>>>End Processed Spectral Data<<<<<
