SpectraSuite Data File
++++++++++++++++++++++++++++++++++++
Date: Thu Feb 11 10:32:48 EET 2016
User: OO Maya
Dark Spectrum Present: No
Reference Spectrum Present: No
Number of Sampled Component Spectra: 1
Spectrometers: MAYP11278
Integration Time (usec): 100000 (MAYP11278)
Spectra Averaged: 10 (MAYP11278)
Boxcar Smoothing: 0 (MAYP11278)
Correct for Electrical Dark: No (MAYP11278)
Strobe/Lamp Enabled: No (MAYP11278)
Correct for Detector Non-linearity: No (MAYP11278)
Correct for Stray Light: No (MAYP11278)
Number of Pixels in Processed Spectrum: 2068
>>>>>Begin Processed Spectral Data<<<<<
187,82	2303,00
188,30	2220,10
188,78	2191,80
189,26	2193,30
189,73	2353,40
190,21	2355,80
190,69	2357,60
191,17	2366,10
191,64	2373,00
192,12	2362,00
192,60	2361,60
193,07	2353,90
193,55	2367,30
194,03	2357,70
194,51	2366,80
194,98	2361,20
195,46	2372,10
195,94	2361,70
196,42	2360,90
196,89	2390,50
197,37	2359,10
197,85	2350,50
198,32	2356,10
198,80	2354,40
199,28	2367,40
199,76	2365,90
200,23	2359,10
200,71	2359,70
201,19	2367,90
201,66	2364,60
202,14	2369,70
202,62	2352,00
203,09	2368,80
203,57	2350,80
204,05	2368,90
204,53	2377,50
205,00	2358,60
205,48	2358,20
205,96	2383,70
206,43	2360,90
206,91	2372,90
207,39	2390,10
207,86	2365,50
208,34	2365,40
208,82	2359,00
209,29	2372,70
209,77	2369,80
210,25	2362,40
210,72	2362,20
211,20	2373,30
211,68	2368,20
212,15	2365,60
212,63	2386,20
213,11	2374,40
213,58	2361,20
214,06	2384,90
214,53	2370,90
215,01	2378,40
215,49	2367,10
215,96	2371,20
216,44	2375,20
216,92	2373,90
217,39	2363,50
217,87	2367,10
218,35	2374,20
218,82	2354,30
219,30	2359,80
219,77	2357,80
220,25	2365,80
220,73	2390,60
221,20	2358,30
221,68	2375,60
222,15	2362,00
222,63	2371,80
223,11	2363,10
223,58	2372,20
224,06	2368,50
224,53	2362,30
225,01	2359,90
225,49	2363,60
225,96	2362,70
226,44	2367,70
226,91	2376,40
227,39	2365,70
227,87	2376,10
228,34	2370,20
228,82	2375,20
229,29	2366,60
229,77	2364,10
230,24	2362,50
230,72	2374,90
231,20	2383,30
231,67	2367,50
232,15	2366,80
232,62	2359,10
233,10	2367,20
233,57	2371,90
234,05	2404,50
234,53	2365,60
235,00	2359,20
235,48	2368,90
235,95	2356,10
236,43	2373,10
236,90	2390,80
237,38	2361,50
237,85	2371,60
238,33	2370,80
238,80	2367,90
239,28	2368,80
239,75	2351,00
240,23	2370,20
240,71	2376,50
241,18	2366,70
241,66	2367,70
242,13	2378,50
242,61	2380,40
243,08	2355,80
243,56	2361,00
244,03	2369,00
244,51	2381,50
244,98	2362,70
245,46	2375,50
245,93	2907,00
246,41	2346,80
246,88	2365,00
247,36	2367,90
247,83	2366,40
248,31	2375,70
248,78	2354,00
249,26	2373,00
249,73	2378,10
250,21	2375,10
250,68	2382,90
251,16	2372,60
251,63	2387,30
252,10	2377,00
252,58	2363,10
253,05	2379,50
253,53	2371,00
254,00	2368,80
254,48	2371,30
254,95	2373,60
255,43	2378,60
255,90	2364,80
256,38	2372,50
256,85	2374,60
257,33	2374,00
257,80	2398,20
258,27	2369,50
258,75	2366,40
259,22	2373,30
259,70	2376,30
260,17	2386,40
260,65	2370,30
261,12	2366,50
261,59	2380,40
262,07	2358,70
262,54	2376,00
263,02	2372,20
263,49	2363,60
263,97	2373,10
264,44	2378,90
264,91	2363,80
265,39	2365,40
265,86	2373,80
266,34	2380,70
266,81	2360,30
267,28	2363,90
267,76	2374,10
268,23	2371,90
268,71	2357,00
269,18	2360,40
269,65	2367,90
270,13	2380,70
270,60	2383,60
271,08	2369,60
271,55	2369,60
272,02	2359,00
272,50	2358,20
272,97	2352,00
273,44	2372,00
273,92	2402,00
274,39	2375,90
274,87	2378,70
275,34	2368,20
275,81	2372,00
276,29	2378,90
276,76	2380,80
277,23	2360,50
277,71	2367,90
278,18	2355,50
278,65	2405,80
279,13	2368,90
279,60	2367,50
280,07	2411,50
280,55	2376,40
281,02	2398,40
281,50	2363,20
281,97	2379,80
282,44	2368,20
282,91	2372,40
283,39	2371,20
283,86	2365,50
284,33	2356,60
284,81	2380,00
285,28	2369,20
285,75	2371,60
286,23	2379,60
286,70	2356,80
287,17	2378,30
287,65	2382,90
288,12	2364,00
288,59	2376,50
289,07	2351,70
289,54	2386,40
290,01	2363,90
290,48	2376,00
290,96	2365,00
291,43	2375,10
291,90	2391,40
292,38	2361,80
292,85	2381,30
293,32	2366,70
293,79	2378,20
294,27	2378,00
294,74	2363,20
295,21	2371,60
295,69	2370,20
296,16	2391,20
296,63	2386,80
297,10	2373,10
297,58	2374,20
298,05	2373,00
298,52	2367,10
298,99	2388,30
299,47	2367,50
299,94	2375,60
300,41	2364,50
300,88	2380,20
301,36	2379,70
301,83	2380,50
302,30	2361,90
302,77	2381,00
303,25	2372,90
303,72	2364,10
304,19	2363,10
304,66	2362,00
305,13	2371,60
305,61	2376,70
306,08	2371,40
306,55	2372,40
307,02	2369,20
307,49	2367,40
307,97	2367,00
308,44	2365,80
308,91	2375,80
309,38	2377,80
309,86	2375,00
310,33	2368,40
310,80	2370,50
311,27	2368,50
311,74	2374,90
312,21	2373,60
312,69	2395,30
313,16	2363,40
313,63	2367,00
314,10	2372,80
314,57	2366,20
315,05	2365,40
315,52	2376,70
315,99	2376,30
316,46	2368,10
316,93	2379,70
317,40	2363,50
317,88	2402,70
318,35	2371,60
318,82	2368,60
319,29	2357,90
319,76	2376,00
320,23	2384,90
320,70	2377,30
321,18	2365,10
321,65	2354,20
322,12	2365,60
322,59	2389,60
323,06	2370,10
323,53	2395,40
324,00	2359,90
324,48	2373,00
324,95	2362,20
325,42	2366,40
325,89	2367,10
326,36	2368,90
326,83	2376,80
327,30	2376,80
327,77	2375,50
328,24	2372,80
328,72	2368,40
329,19	2362,50
329,66	2369,30
330,13	2366,20
330,60	2381,10
331,07	2374,50
331,54	2388,70
332,01	2363,10
332,48	2388,60
332,95	2371,30
333,43	2375,50
333,90	2382,40
334,37	2376,20
334,84	2374,70
335,31	2408,30
335,78	2362,00
336,25	2374,50
336,72	2372,60
337,19	2374,10
337,66	2362,40
338,13	2369,10
338,60	2389,80
339,07	2380,10
339,54	2362,80
340,01	2368,50
340,49	2359,90
340,96	2370,80
341,43	2382,90
341,90	2365,60
342,37	2372,00
342,84	2380,00
343,31	2369,70
343,78	2363,40
344,25	2372,00
344,72	2361,80
345,19	2368,10
345,66	2379,80
346,13	2366,40
346,60	2367,70
347,07	2386,00
347,54	2363,70
348,01	2382,50
348,48	2369,30
348,95	2358,00
349,42	2375,70
349,89	2376,10
350,36	2362,70
350,83	2367,20
351,30	2373,90
351,77	2389,90
352,24	2374,30
352,71	2368,50
353,18	2368,40
353,65	2382,80
354,12	2374,80
354,59	2376,00
355,06	2374,30
355,53	2388,60
356,00	2362,80
356,47	2383,20
356,94	2359,70
357,41	2408,60
357,88	2378,40
358,35	2359,40
358,82	2359,10
359,28	2364,50
359,75	2365,30
360,22	2379,50
360,69	2386,20
361,16	2369,40
361,63	2371,50
362,10	2371,60
362,57	2361,00
363,04	2368,00
363,51	2394,90
363,98	2377,90
364,45	2363,90
364,92	2374,50
365,39	2367,70
365,86	2358,50
366,32	2374,00
366,79	2367,10
367,26	2522,90
367,73	2352,90
368,20	2356,90
368,67	2379,40
369,14	2358,90
369,61	2375,90
370,08	2366,70
370,55	2366,00
371,02	2514,20
371,48	2374,00
371,95	2363,60
372,42	2355,90
372,89	2368,90
373,36	2369,60
373,83	2362,80
374,30	2361,60
374,77	2376,90
375,23	2357,10
375,70	2386,40
376,17	2365,60
376,64	2361,20
377,11	2359,60
377,58	2369,10
378,05	2369,00
378,51	2368,40
378,98	2369,50
379,45	2372,00
379,92	2374,50
380,39	2385,90
380,86	2368,40
381,33	2384,60
381,79	2387,30
382,26	2354,70
382,73	2372,70
383,20	2366,80
383,67	2378,80
384,14	2368,80
384,60	2426,70
385,07	2371,00
385,54	2368,00
386,01	2363,50
386,48	2386,50
386,94	2364,90
387,41	2358,40
387,88	2381,30
388,35	2372,60
388,82	2383,40
389,28	2362,00
389,75	2382,30
390,22	2375,60
390,69	2372,30
391,16	2372,70
391,62	2368,50
392,09	2378,60
392,56	2360,60
393,03	2366,30
393,50	2391,90
393,96	2374,40
394,43	2376,90
394,90	2359,80
395,37	2380,10
395,83	2420,80
396,30	2360,60
396,77	2373,70
397,24	2377,50
397,70	2359,70
398,17	2363,20
398,64	2367,00
399,11	2360,30
399,57	2378,90
400,04	2361,00
400,51	2368,40
400,98	2364,80
401,44	2377,10
401,91	2373,70
402,38	2371,00
402,84	2357,90
403,31	2383,40
403,78	2367,20
404,25	2388,60
404,71	2388,00
405,18	2382,10
405,65	2358,90
406,12	2380,80
406,58	2374,10
407,05	2391,00
407,52	2370,60
407,98	2369,70
408,45	2375,20
408,92	2363,20
409,38	2386,80
409,85	2361,60
410,32	2384,00
410,78	2362,40
411,25	2385,10
411,72	2365,10
412,18	2355,10
412,65	2372,90
413,12	2366,10
413,59	2372,90
414,05	2378,00
414,52	2390,70
414,98	2365,70
415,45	2382,60
415,92	2376,80
416,38	2370,80
416,85	2386,60
417,32	2371,80
417,78	2368,80
418,25	2371,90
418,72	2369,30
419,18	2381,50
419,65	2365,70
420,12	2376,40
420,58	2358,20
421,05	2372,70
421,51	2364,90
421,98	2375,30
422,45	2367,60
422,91	2365,90
423,38	2374,30
423,85	2381,20
424,31	2365,70
424,78	2375,40
425,24	2365,80
425,71	2384,60
426,18	2368,30
426,64	2382,20
427,11	2376,70
427,57	2380,20
428,04	2358,60
428,51	2383,10
428,97	2372,40
429,44	2370,40
429,90	2374,30
430,37	2398,30
430,83	2362,40
431,30	2360,80
431,77	2385,00
432,23	2386,90
432,70	2368,10
433,16	2363,40
433,63	2368,80
434,09	2361,50
434,56	2375,00
435,03	2365,50
435,49	2373,90
435,96	2372,70
436,42	2358,80
436,89	2381,20
437,35	2372,00
437,82	2372,30
438,28	2364,90
438,75	2363,80
439,21	2409,00
439,68	2381,90
440,14	2378,10
440,61	2384,50
441,07	2357,70
441,54	2367,40
442,00	2399,50
442,47	2357,90
442,94	2369,80
443,40	2371,90
443,87	2358,60
444,33	2389,50
444,80	2381,50
445,26	2376,40
445,73	2371,20
446,19	2374,60
446,65	2367,00
447,12	2373,80
447,58	2365,80
448,05	2360,10
448,51	2375,70
448,98	2372,20
449,44	2367,80
449,91	2365,60
450,37	2360,20
450,84	2368,30
451,30	2372,80
451,77	2383,20
452,23	2355,80
452,70	2382,10
453,16	2369,30
453,62	2373,50
454,09	2365,80
454,55	2370,00
455,02	2367,90
455,48	2370,80
455,95	2381,10
456,41	2366,30
456,88	2384,50
457,34	2361,80
457,80	2372,10
458,27	2360,30
458,73	2371,40
459,20	2371,60
459,66	2390,90
460,13	2362,00
460,59	2359,80
461,05	2383,10
461,52	2377,50
461,98	2364,70
462,45	2363,30
462,91	2385,40
463,37	2367,50
463,84	2366,10
464,30	2373,60
464,76	2361,10
465,23	2362,90
465,69	2380,00
466,16	2374,60
466,62	2373,20
467,08	2368,10
467,55	2370,70
468,01	2372,50
468,48	2377,30
468,94	2364,00
469,40	2360,00
469,87	2377,10
470,33	2378,20
470,79	2370,60
471,26	2364,70
471,72	2363,00
472,18	2365,20
472,65	2371,00
473,11	2383,90
473,57	2369,60
474,04	2364,40
474,50	2365,20
474,96	2357,80
475,43	2369,80
475,89	2372,60
476,35	2372,70
476,82	2367,70
477,28	2369,10
477,74	2382,70
478,21	2372,30
478,67	2382,20
479,13	2366,10
479,59	2389,60
480,06	2374,80
480,52	2369,90
480,98	2361,90
481,45	2369,40
481,91	2372,40
482,37	2359,50
482,84	2365,40
483,30	2356,80
483,76	2363,30
484,22	2387,70
484,69	2371,70
485,15	2364,30
485,61	2356,00
486,07	2365,70
486,54	2355,30
487,00	2371,30
487,46	2357,20
487,92	2361,10
488,39	2366,80
488,85	2372,10
489,31	2366,80
489,77	2381,70
490,24	2359,70
490,70	2371,30
491,16	2359,50
491,62	2363,90
492,09	2352,40
492,55	2375,00
493,01	2372,80
493,47	2367,30
493,94	2371,70
494,40	2364,30
494,86	2362,70
495,32	2355,80
495,78	2370,00
496,25	2362,30
496,71	2364,70
497,17	2386,80
497,63	2374,60
498,09	2365,20
498,56	2368,90
499,02	2362,90
499,48	2390,90
499,94	2369,60
500,40	2362,00
500,87	2371,10
501,33	2367,90
501,79	2374,30
502,25	2365,30
502,71	2432,80
503,17	2361,80
503,64	2371,00
504,10	2368,80
504,56	2369,20
505,02	2368,80
505,48	2368,20
505,94	2369,10
506,40	2375,40
506,87	2368,00
507,33	2372,90
507,79	2368,60
508,25	2361,40
508,71	2363,50
509,17	2357,20
509,63	2361,70
510,10	2363,00
510,56	2361,20
511,02	2382,10
511,48	2378,60
511,94	2362,20
512,40	2352,10
512,86	2362,70
513,32	2376,40
513,78	2349,70
514,25	2379,60
514,71	2389,70
515,17	2351,10
515,63	2371,50
516,09	2383,80
516,55	2377,70
517,01	2403,40
517,47	2370,00
517,93	2371,30
518,39	2409,20
518,85	2362,00
519,32	2365,90
519,78	2362,10
520,24	2357,70
520,70	2370,50
521,16	2373,70
521,62	2375,90
522,08	2367,80
522,54	2358,60
523,00	2392,10
523,46	2371,90
523,92	2359,50
524,38	2392,20
524,84	2378,00
525,30	2374,70
525,76	2385,90
526,22	2369,20
526,68	2368,30
527,14	2368,00
527,60	2366,50
528,06	2372,00
528,52	2376,40
528,98	2366,60
529,44	2359,60
529,90	2370,30
530,36	2376,10
530,82	2353,70
531,28	2375,00
531,74	2365,30
532,20	2365,70
532,66	2365,60
533,12	2375,50
533,58	2365,60
534,04	2355,80
534,50	2367,70
534,96	2366,40
535,42	2369,10
535,88	2361,30
536,34	2378,00
536,80	2360,00
537,26	2374,40
537,72	2365,60
538,18	2364,20
538,64	2386,80
539,10	2377,70
539,56	2426,80
540,02	2351,50
540,48	2387,30
540,94	2368,40
541,40	2359,70
541,86	2372,00
542,32	2373,20
542,78	2361,70
543,24	2400,80
543,69	2353,00
544,15	2388,70
544,61	2379,00
545,07	2365,50
545,53	2366,00
545,99	2379,10
546,45	2366,60
546,91	2378,20
547,37	2373,40
547,83	2373,20
548,29	2364,70
548,74	2370,50
549,20	2360,90
549,66	2393,60
550,12	2365,30
550,58	2361,70
551,04	2374,90
551,50	2367,60
551,96	2393,00
552,42	2370,60
552,87	2358,10
553,33	2375,70
553,79	2367,60
554,25	2356,90
554,71	2372,20
555,17	2365,90
555,63	2389,00
556,08	2365,40
556,54	2379,60
557,00	2354,60
557,46	2368,30
557,92	2391,50
558,38	2363,00
558,83	2366,40
559,29	2357,70
559,75	2365,30
560,21	2356,00
560,67	2366,90
561,13	2367,90
561,58	2367,70
562,04	2366,70
562,50	2362,70
562,96	2374,50
563,42	2380,50
563,87	2355,50
564,33	2369,60
564,79	2366,80
565,25	2364,40
565,71	2367,90
566,16	2380,00
566,62	2359,70
567,08	2368,10
567,54	2364,70
568,00	2378,10
568,45	2365,10
568,91	2364,20
569,37	2378,40
569,83	2370,60
570,28	2366,90
570,74	2372,70
571,20	2375,30
571,66	2363,90
572,11	2376,50
572,57	2371,40
573,03	2364,60
573,49	2360,60
573,94	2370,70
574,40	2388,60
574,86	2376,20
575,32	2360,10
575,77	2373,20
576,23	2353,00
576,69	2378,10
577,15	2363,80
577,60	2367,00
578,06	2361,40
578,52	2384,10
578,97	2374,20
579,43	2362,20
579,89	2373,00
580,34	2367,50
580,80	2367,10
581,26	2369,30
581,72	2370,00
582,17	2364,90
582,63	2357,80
583,09	2365,80
583,54	2367,30
584,00	2363,30
584,46	2368,50
584,91	2360,70
585,37	2399,10
585,83	2362,90
586,28	2364,20
586,74	2368,70
587,20	2367,20
587,65	2379,50
588,11	2354,30
588,57	2375,90
589,02	2369,10
589,48	2363,00
589,94	2369,40
590,39	2377,80
590,85	2357,60
591,30	2356,50
591,76	2382,60
592,22	2365,50
592,67	2371,60
593,13	2368,50
593,59	2379,20
594,04	2365,10
594,50	2367,60
594,95	2376,40
595,41	2363,60
595,87	2362,00
596,32	2389,30
596,78	2377,30
597,23	2372,00
597,69	2369,40
598,15	2354,90
598,60	2369,90
599,06	2385,40
599,51	2364,50
599,97	2372,00
600,43	2383,10
600,88	2376,40
601,34	2374,40
601,79	2360,40
602,25	2400,00
602,70	2363,00
603,16	2366,90
603,61	2363,60
604,07	2352,80
604,53	2374,80
604,98	2361,60
605,44	2368,80
605,89	2370,60
606,35	2350,80
606,80	2369,00
607,26	2367,80
607,71	2368,40
608,17	2373,80
608,62	2365,60
609,08	2393,60
609,53	2380,80
609,99	2369,90
610,44	2364,40
610,90	2374,10
611,35	2357,40
611,81	2388,70
612,26	2371,30
612,72	2366,50
613,17	2405,80
613,63	2358,70
614,08	2354,50
614,54	2359,40
614,99	2360,40
615,45	2367,50
615,90	2369,40
616,36	2363,00
616,81	2367,30
617,27	2366,00
617,72	2380,20
618,18	2362,90
618,63	2361,50
619,09	2361,80
619,54	2376,50
619,99	2370,80
620,45	2376,70
620,90	2381,30
621,36	2364,60
621,81	2373,80
622,27	2381,30
622,72	2378,30
623,18	2359,20
623,63	2353,50
624,08	2373,70
624,54	2353,80
624,99	2370,80
625,45	2368,10
625,90	2358,40
626,35	2368,20
626,81	2367,50
627,26	2358,70
627,72	2377,50
628,17	2372,60
628,62	2356,10
629,08	2368,20
629,53	2363,30
629,99	2360,30
630,44	2375,50
630,89	2370,90
631,35	2377,70
631,80	2371,00
632,26	2380,70
632,71	2358,00
633,16	2359,80
633,62	2357,80
634,07	2361,10
634,52	2356,80
634,98	2363,90
635,43	2362,50
635,88	2353,80
636,34	2364,20
636,79	2364,60
637,24	2357,70
637,70	2381,00
638,15	2376,10
638,60	2359,80
639,06	2363,60
639,51	2360,50
639,96	2352,10
640,42	2371,30
640,87	2379,60
641,32	2352,00
641,78	2357,80
642,23	2366,00
642,68	2354,70
643,14	2364,20
643,59	2369,90
644,04	2358,60
644,49	2354,40
644,95	2364,50
645,40	2355,80
645,85	2366,90
646,31	2370,80
646,76	2370,30
647,21	2371,70
647,66	2368,30
648,12	2365,20
648,57	2353,20
649,02	2383,20
649,47	2372,50
649,93	2415,70
650,38	2359,60
650,83	2360,50
651,28	2358,70
651,74	2369,90
652,19	2355,30
652,64	2366,70
653,09	2354,70
653,55	2358,70
654,00	2369,70
654,45	2370,50
654,90	2364,20
655,35	2358,50
655,81	2371,20
656,26	2362,60
656,71	2363,50
657,16	2371,50
657,62	2374,10
658,07	2361,20
658,52	2364,00
658,97	2361,30
659,42	2418,10
659,88	2357,90
660,33	2374,10
660,78	2366,60
661,23	2358,60
661,68	2360,50
662,13	2359,50
662,59	2348,20
663,04	2373,80
663,49	2364,70
663,94	2361,80
664,39	2366,80
664,84	2360,50
665,30	2367,40
665,75	2350,40
666,20	2366,30
666,65	2366,30
667,10	2396,90
667,55	2381,30
668,00	2356,00
668,46	2372,80
668,91	2360,20
669,36	2390,40
669,81	2346,80
670,26	2363,80
670,71	2382,70
671,16	2367,90
671,61	2384,90
672,06	2391,40
672,52	2364,70
672,97	2363,70
673,42	2382,90
673,87	2402,40
674,32	2368,10
674,77	2373,10
675,22	2352,30
675,67	2357,40
676,12	2366,20
676,57	2370,10
677,02	2364,30
677,47	2362,90
677,93	2395,90
678,38	2354,70
678,83	2361,20
679,28	2370,80
679,73	2362,60
680,18	2362,60
680,63	2366,00
681,08	2348,60
681,53	2345,70
681,98	2362,30
682,43	2365,20
682,88	2374,30
683,33	2369,00
683,78	2372,00
684,23	2384,60
684,68	2367,80
685,13	2365,50
685,58	2368,10
686,03	2362,90
686,48	2356,00
686,93	2366,80
687,38	2361,80
687,83	2365,50
688,28	2364,70
688,73	2398,60
689,18	2370,90
689,63	2347,40
690,08	2365,70
690,53	2365,10
690,98	2350,70
691,43	2361,90
691,88	2357,40
692,33	2367,60
692,78	2354,50
693,23	2378,10
693,68	2372,00
694,13	2367,40
694,58	2369,80
695,03	2413,80
695,48	2363,90
695,93	2368,40
696,38	2383,80
696,83	2367,50
697,28	2361,60
697,72	2369,40
698,17	2356,90
698,62	2371,00
699,07	2373,10
699,52	2358,20
699,97	2360,40
700,42	2374,60
700,87	2371,10
701,32	2411,60
701,77	2353,50
702,22	2383,60
702,67	2360,20
703,11	2359,00
703,56	2366,90
704,01	2362,60
704,46	2369,00
704,91	2377,50
705,36	2374,80
705,81	2374,20
706,26	2356,80
706,70	2374,40
707,15	2369,90
707,60	2362,80
708,05	2371,50
708,50	2379,30
708,95	2366,70
709,40	2361,30
709,84	2365,00
710,29	2366,70
710,74	2361,50
711,19	2369,50
711,64	2366,20
712,09	2369,20
712,53	2361,30
712,98	2392,20
713,43	2366,40
713,88	2375,00
714,33	2383,00
714,78	2378,20
715,22	2361,90
715,67	2369,10
716,12	2357,50
716,57	2359,70
717,02	2351,90
717,46	2350,70
717,91	2368,50
718,36	2384,80
718,81	2359,60
719,26	2358,20
719,70	2366,30
720,15	2368,70
720,60	2357,10
721,05	2368,90
721,49	2358,30
721,94	2369,90
722,39	2363,20
722,84	2350,90
723,28	2353,00
723,73	2365,80
724,18	2353,00
724,63	2370,30
725,07	2354,40
725,52	2367,30
725,97	2364,40
726,42	2365,70
726,86	2386,60
727,31	2355,40
727,76	2381,40
728,21	2370,80
728,65	2358,00
729,10	2374,20
729,55	2355,70
729,99	2376,90
730,44	2350,90
730,89	2364,70
731,33	2372,30
731,78	2364,30
732,23	2365,00
732,68	2356,90
733,12	2373,80
733,57	2373,20
734,02	2353,60
734,46	2378,10
734,91	2375,00
735,36	2368,50
735,80	2399,20
736,25	2357,70
736,70	2372,80
737,14	2379,00
737,59	2371,10
738,04	2363,80
738,48	2365,40
738,93	2368,40
739,37	2355,10
739,82	2378,20
740,27	2374,70
740,71	2356,40
741,16	2368,30
741,61	2376,50
742,05	2361,00
742,50	2362,90
742,94	2358,90
743,39	2359,90
743,84	2358,80
744,28	2366,50
744,73	2381,60
745,18	2372,30
745,62	2371,50
746,07	2380,30
746,51	2344,10
746,96	2357,20
747,40	2357,40
747,85	2369,90
748,30	2359,10
748,74	2359,90
749,19	2372,80
749,63	2395,90
750,08	2366,60
750,52	2363,20
750,97	2353,50
751,42	2362,30
751,86	2364,70
752,31	2360,90
752,75	2384,00
753,20	2359,80
753,64	2365,10
754,09	2353,70
754,53	2357,70
754,98	2352,60
755,42	2363,90
755,87	2364,30
756,31	2385,10
756,76	2362,60
757,20	2383,70
757,65	2366,90
758,09	2366,10
758,54	2364,30
758,98	2364,70
759,43	2349,60
759,87	2365,40
760,32	2368,40
760,76	2363,50
761,21	2371,60
761,65	2382,30
762,10	2364,80
762,54	2351,90
762,99	2357,60
763,43	2369,60
763,88	2361,50
764,32	2354,30
764,77	2358,60
765,21	2369,10
765,66	2348,70
766,10	2351,20
766,54	2357,30
766,99	2366,30
767,43	2367,30
767,88	2371,40
768,32	2370,80
768,77	2367,80
769,21	2387,10
769,66	2357,40
770,10	2360,50
770,54	2363,10
770,99	2353,50
771,43	2376,20
771,88	2363,00
772,32	2368,80
772,76	2351,80
773,21	2358,20
773,65	2361,20
774,10	2348,90
774,54	2363,50
774,98	2353,80
775,43	2366,70
775,87	2364,10
776,31	2359,60
776,76	2361,10
777,20	2361,70
777,65	2368,20
778,09	2374,80
778,53	2361,80
778,98	2372,30
779,42	2396,00
779,86	2384,20
780,31	2371,50
780,75	2376,30
781,19	2372,10
781,64	2355,00
782,08	2367,80
782,52	2356,70
782,97	2362,50
783,41	2376,40
783,85	2374,90
784,30	2367,50
784,74	2359,20
785,18	2364,60
785,63	2357,80
786,07	2372,50
786,51	2376,40
786,95	2377,90
787,40	2353,90
787,84	2359,70
788,28	2366,30
788,73	2392,90
789,17	2358,00
789,61	2359,40
790,05	2365,90
790,50	2354,30
790,94	2360,40
791,38	2373,90
791,82	2354,80
792,27	2371,00
792,71	2362,10
793,15	2410,20
793,59	2372,60
794,04	2365,50
794,48	2366,80
794,92	2365,50
795,36	2355,90
795,81	2370,20
796,25	2362,70
796,69	2366,90
797,13	2363,00
797,57	2350,40
798,02	2363,30
798,46	2383,10
798,90	2370,30
799,34	2356,90
799,79	2386,50
800,23	2370,40
800,67	2356,40
801,11	2370,60
801,55	2368,40
801,99	2356,80
802,44	2378,00
802,88	2383,50
803,32	2372,20
803,76	2369,90
804,20	2364,50
804,64	2362,60
805,09	2385,30
805,53	2388,30
805,97	2385,50
806,41	2380,60
806,85	2388,60
807,29	2356,50
807,74	2365,40
808,18	2360,00
808,62	2367,10
809,06	2370,80
809,50	2357,10
809,94	2356,30
810,38	2370,40
810,82	2382,30
811,27	2405,20
811,71	2356,30
812,15	2356,60
812,59	2370,30
813,03	2391,70
813,47	2374,90
813,91	2366,00
814,35	2378,10
814,79	2376,30
815,23	2366,10
815,67	2360,40
816,12	2361,00
816,56	2361,10
817,00	2370,60
817,44	2366,80
817,88	2380,30
818,32	2367,90
818,76	2372,60
819,20	2380,90
819,64	2361,70
820,08	2378,80
820,52	2365,00
820,96	2370,00
821,40	2360,00
821,84	2381,10
822,28	2354,10
822,72	2363,90
823,16	2370,80
823,60	2355,10
824,04	2369,80
824,48	2369,00
824,92	2369,40
825,36	2374,00
825,80	2357,70
826,24	2363,90
826,68	2347,80
827,12	2361,90
827,56	2373,70
828,00	2378,80
828,44	2363,80
828,88	2373,10
829,32	2371,10
829,76	2360,70
830,20	2386,90
830,64	2368,10
831,08	2391,60
831,52	2375,40
831,96	2374,30
832,40	2349,90
832,84	2365,70
833,28	2366,60
833,72	2379,60
834,16	2376,40
834,60	2363,40
835,04	2361,00
835,48	2380,10
835,91	2366,10
836,35	2368,10
836,79	2361,80
837,23	2376,50
837,67	2358,90
838,11	2362,30
838,55	2373,30
838,99	2367,30
839,43	2388,80
839,87	2393,40
840,30	2371,80
840,74	2379,10
841,18	2353,10
841,62	2361,20
842,06	2357,50
842,50	2364,50
842,94	2379,20
843,38	2366,50
843,81	2375,50
844,25	2372,00
844,69	2360,70
845,13	2367,80
845,57	2367,70
846,01	2375,00
846,45	2360,70
846,88	2357,20
847,32	2369,50
847,76	2362,40
848,20	2361,90
848,64	2360,90
849,08	2370,10
849,51	2375,30
849,95	2371,80
850,39	2365,30
850,83	2381,60
851,27	2356,40
851,70	2370,60
852,14	2378,30
852,58	2366,00
853,02	2359,70
853,46	2372,50
853,89	2354,40
854,33	2372,90
854,77	2358,70
855,21	2360,30
855,65	2378,30
856,08	2385,50
856,52	2366,30
856,96	2371,40
857,40	2368,70
857,83	2358,60
858,27	2380,10
858,71	2350,80
859,15	2358,00
859,58	2364,10
860,02	2367,40
860,46	2364,00
860,89	2373,00
861,33	2359,60
861,77	2361,00
862,21	2371,70
862,64	2360,80
863,08	2362,60
863,52	2376,20
863,95	2362,40
864,39	2369,20
864,83	2365,70
865,27	2352,20
865,70	2364,90
866,14	2352,10
866,58	2369,80
867,01	2361,60
867,45	2367,10
867,89	2363,00
868,32	2357,80
868,76	2376,30
869,20	2370,60
869,63	2378,70
870,07	2392,00
870,51	2361,10
870,94	2363,30
871,38	2363,50
871,82	2359,40
872,25	2371,90
872,69	2370,90
873,13	2366,20
873,56	2382,50
874,00	2377,00
874,43	2362,80
874,87	2358,70
875,31	2379,20
875,74	2352,70
876,18	2367,40
876,61	2363,20
877,05	2367,20
877,49	2367,00
877,92	2361,60
878,36	2373,20
878,79	2368,30
879,23	2389,70
879,67	2363,10
880,10	2361,70
880,54	2359,10
880,97	2368,30
881,41	2373,80
881,84	2367,30
882,28	2367,00
882,72	2365,90
883,15	2365,30
883,59	2359,90
884,02	2371,90
884,46	2370,50
884,89	2370,30
885,33	2374,70
885,76	2362,10
886,20	2362,60
886,63	2387,00
887,07	2352,70
887,50	2357,30
887,94	2366,90
888,37	2360,70
888,81	2405,40
889,24	2353,50
889,68	2375,90
890,11	2365,10
890,55	2373,00
890,98	2372,00
891,42	2355,00
891,85	2361,60
892,29	2371,10
892,72	2360,50
893,16	2363,20
893,59	2368,70
894,03	2363,70
894,46	2370,30
894,90	2359,30
895,33	2354,70
895,77	2366,10
896,20	2373,20
896,63	2356,40
897,07	2361,80
897,50	2357,30
897,94	2370,90
898,37	2384,30
898,81	2361,60
899,24	2358,80
899,68	2363,80
900,11	2374,50
900,54	2375,60
900,98	2362,80
901,41	2391,90
901,85	2387,20
902,28	2365,60
902,71	2360,50
903,15	2386,60
903,58	2366,70
904,02	2365,30
904,45	2363,50
904,88	2360,30
905,32	2358,90
905,75	2379,50
906,18	2369,70
906,62	2379,60
907,05	2367,80
907,48	2370,40
907,92	2373,80
908,35	2381,40
908,79	2362,10
909,22	2354,50
909,65	2371,00
910,09	2368,60
910,52	2366,00
910,95	2361,10
911,38	2362,80
911,82	2372,90
912,25	2363,40
912,68	2374,90
913,12	2365,90
913,55	2366,90
913,98	2357,30
914,42	2357,40
914,85	2364,10
915,28	2357,60
915,72	2377,20
916,15	2360,70
916,58	2379,00
917,01	2361,10
917,45	2374,60
917,88	2362,00
918,31	2373,70
918,74	2366,60
919,18	2372,40
919,61	2378,90
920,04	2372,00
920,47	2383,60
920,91	2371,90
921,34	2365,10
921,77	2357,10
922,20	2361,10
922,64	2367,90
923,07	2387,60
923,50	2368,20
923,93	2356,80
924,37	2376,70
924,80	2358,80
925,23	2381,90
925,66	2392,70
926,09	2365,50
926,53	2374,30
926,96	2360,70
927,39	2392,60
927,82	2364,30
928,25	2359,20
928,69	2374,60
929,12	2368,20
929,55	2371,90
929,98	2370,10
930,41	2361,40
930,84	2373,30
931,28	2354,50
931,71	2381,90
932,14	2378,50
932,57	2396,90
933,00	2357,10
933,43	2380,60
933,86	2386,40
934,30	2378,50
934,73	2368,50
935,16	2358,70
935,59	2371,20
936,02	2361,70
936,45	2366,60
936,88	2356,80
937,31	2374,20
937,75	2358,40
938,18	2359,70
938,61	2377,20
939,04	2356,60
939,47	2368,20
939,90	2379,20
940,33	2394,20
940,76	2363,10
941,19	2380,30
941,62	2360,80
942,05	2362,30
942,48	2375,50
942,91	2355,50
943,35	2351,20
943,78	2378,70
944,21	2373,70
944,64	2377,90
945,07	2361,60
945,50	2371,30
945,93	2365,20
946,36	2379,70
946,79	2359,20
947,22	2367,90
947,65	2373,20
948,08	2359,40
948,51	2358,80
948,94	2357,70
949,37	2394,10
949,80	2386,30
950,23	2364,70
950,66	2362,70
951,09	2372,20
951,52	2355,80
951,95	2378,30
952,38	2364,20
952,81	2384,80
953,24	2349,60
953,67	2361,00
954,10	2363,40
954,53	2363,90
954,96	2361,40
955,39	2371,80
955,82	2357,20
956,25	2374,00
956,68	2406,30
957,11	2354,10
957,53	2373,10
957,96	2370,60
958,39	2363,90
958,82	2360,50
959,25	2361,60
959,68	2352,40
960,11	2362,80
960,54	2378,80
960,97	2367,90
961,40	2378,50
961,83	2376,00
962,26	2360,90
962,68	2377,00
963,11	2364,70
963,54	2368,10
963,97	2361,70
964,40	2362,50
964,83	2370,40
965,26	2365,30
965,69	2365,40
966,11	2370,70
966,54	2359,80
966,97	2355,90
967,40	2379,50
967,83	2410,60
968,26	2372,00
968,69	2371,60
969,11	2372,80
969,54	2358,60
969,97	2362,80
970,40	2372,90
970,83	2365,30
971,26	2363,50
971,68	2356,40
972,11	2363,90
972,54	2363,70
972,97	2373,80
973,40	2362,70
973,82	2374,80
974,25	2372,10
974,68	2364,30
975,11	2358,70
975,54	2366,50
975,96	2372,00
976,39	2356,70
976,82	2373,80
977,25	2365,10
977,67	2362,20
978,10	2361,50
978,53	2361,10
978,96	2380,50
979,38	2377,40
979,81	2358,70
980,24	2370,90
980,67	2378,90
981,09	2366,50
981,52	2364,70
981,95	2362,40
982,38	2360,70
982,80	2361,00
983,23	2380,60
983,66	2376,20
984,08	2356,20
984,51	2353,90
984,94	2364,90
985,37	2376,20
985,79	2366,70
986,22	2365,10
986,65	2373,80
987,07	2365,30
987,50	2363,60
987,93	2367,10
988,35	2370,80
988,78	2365,20
989,21	2364,80
989,63	2373,70
990,06	2366,90
990,49	2369,70
990,91	2387,30
991,34	2366,30
991,77	2360,30
992,19	2366,20
992,62	2361,20
993,05	2358,70
993,47	2371,60
993,90	2369,60
994,32	2372,80
994,75	2369,20
995,18	2355,10
995,60	2357,30
996,03	2352,10
996,45	2382,60
996,88	2375,60
997,31	2362,10
997,73	2370,40
998,16	2358,40
998,58	2379,20
999,01	2367,30
999,44	2373,40
999,86	2380,20
1000,29	2360,80
1000,71	2364,90
1001,14	2369,40
1001,56	2365,10
1001,99	2371,60
1002,41	2370,20
1002,84	2369,40
1003,27	2362,40
1003,69	2372,40
1004,12	2366,50
1004,54	2379,20
1004,97	2363,40
1005,39	2357,90
1005,82	2375,20
1006,24	2368,50
1006,67	2359,10
1007,09	2353,70
1007,52	2363,10
1007,94	2367,40
1008,37	2410,70
1008,79	2374,70
1009,22	2372,50
1009,64	2370,10
1010,07	2374,10
1010,49	2378,10
1010,92	2370,20
1011,34	2371,10
1011,77	2366,10
1012,19	2372,00
1012,62	2376,90
1013,04	2358,70
1013,46	2386,40
1013,89	2356,00
1014,31	2373,50
1014,74	2362,20
1015,16	2363,70
1015,59	2362,20
1016,01	2373,30
1016,44	2364,60
1016,86	2505,70
1017,28	2361,70
1017,71	2361,00
1018,13	2400,60
1018,56	2379,10
1018,98	2376,70
1019,40	2362,10
1019,83	2366,70
1020,25	2371,20
1020,68	2368,90
1021,10	2369,10
1021,52	2362,80
1021,95	2412,10
1022,37	2383,90
1022,79	2375,30
1023,22	2373,70
1023,64	2371,20
1024,07	2370,90
1024,49	2377,40
1024,91	2363,70
1025,34	2353,90
1025,76	2387,60
1026,18	2374,00
1026,61	2374,10
1027,03	2368,60
1027,45	2369,90
1027,88	2362,10
1028,30	2390,30
1028,72	2363,70
1029,15	2368,10
1029,57	2375,50
1029,99	2384,80
1030,41	2353,90
1030,84	2370,90
1031,26	2375,20
1031,68	2367,70
1032,11	2384,90
1032,53	2361,40
1032,95	2363,40
1033,37	2375,10
1033,80	2374,70
1034,22	2362,60
1034,64	2392,10
1035,06	2362,50
1035,49	2357,80
1035,91	2373,00
1036,33	2357,30
1036,75	2379,60
1037,18	2377,00
1037,60	2379,20
1038,02	2383,20
1038,44	2384,90
1038,87	2361,40
1039,29	2367,00
1039,71	2374,00
1040,13	2369,20
1040,55	2384,20
1040,98	2383,90
1041,40	2377,60
1041,82	2382,10
1042,24	2369,10
1042,66	2374,90
1043,09	2359,80
1043,51	2369,90
1043,93	2366,10
1044,35	2361,10
1044,77	2374,70
1045,20	2372,90
1045,62	2365,20
1046,04	2379,30
1046,46	2378,60
1046,88	2362,30
1047,30	2379,70
1047,72	2377,00
1048,15	2378,90
1048,57	2363,80
1048,99	2361,30
1049,41	2374,50
1049,83	2378,50
1050,25	2392,40
1050,67	2380,10
1051,09	2361,90
1051,52	2382,10
1051,94	2358,90
1052,36	2375,90
1052,78	2355,50
1053,20	2371,60
1053,62	2365,20
1054,04	2371,80
1054,46	2368,60
1054,88	2393,60
1055,30	2378,60
1055,72	2381,70
1056,14	2372,50
1056,57	2414,60
1056,99	2360,70
1057,41	2375,80
1057,83	2377,20
1058,25	2376,10
1058,67	2363,30
1059,09	2361,20
1059,51	2379,00
1059,93	2368,70
1060,35	2368,60
1060,77	2372,10
1061,19	2391,60
1061,61	2368,50
1062,03	2371,50
1062,45	2360,80
1062,87	2383,40
1063,29	2379,00
1063,71	2362,90
1064,13	2361,80
1064,55	2358,00
1064,97	2377,60
1065,39	2375,70
1065,81	2371,70
1066,23	2374,00
1066,65	2369,40
1067,07	2393,80
1067,49	2378,40
1067,91	2369,50
1068,33	2360,50
1068,75	2374,70
1069,17	2384,10
1069,59	2381,00
1070,00	2370,30
1070,42	2379,80
1070,84	2362,60
1071,26	2361,50
1071,68	2360,30
1072,10	2380,40
1072,52	2363,20
1072,94	2364,00
1073,36	2366,10
1073,78	2369,20
1074,20	2369,00
1074,62	2363,40
1075,03	2363,70
1075,45	2369,40
1075,87	2376,40
1076,29	2363,70
1076,71	2378,30
1077,13	2385,00
1077,55	2350,60
1077,97	2370,90
1078,38	2368,20
1078,80	2369,60
1079,22	2378,60
1079,64	2371,10
1080,06	2369,50
1080,48	2369,60
1080,89	2365,20
1081,31	2372,00
1081,73	2368,70
1082,15	2373,60
1082,57	2375,10
1082,99	2366,40
1083,40	2367,30
1083,82	2383,00
1084,24	2360,90
1084,66	2368,00
1085,08	2373,40
1085,49	2357,40
1085,91	2380,20
1086,33	2692,60
1086,75	2374,40
1087,17	2365,80
1087,58	2366,00
1088,00	2363,80
1088,42	2386,10
1088,84	2372,70
1089,25	2359,10
1089,67	2369,30
1090,09	2368,80
1090,51	2363,80
1090,92	2368,50
1091,34	2363,90
1091,76	2371,70
1092,18	2364,80
1092,59	2368,70
1093,01	2372,10
1093,43	2366,80
1093,84	2363,80
1094,26	2372,50
1094,68	2369,90
1095,10	2363,30
1095,51	2367,50
1095,93	2364,00
1096,35	2375,80
1096,76	2371,60
1097,18	2381,30
1097,60	2363,00
1098,01	2367,40
1098,43	2363,40
1098,85	2366,20
1099,26	2364,20
1099,68	2367,20
1100,10	2358,10
1100,51	2365,50
1100,93	2363,80
1101,35	2366,40
1101,76	2370,90
1102,18	2453,80
1102,60	2382,80
1103,01	2354,50
1103,43	2373,40
1103,84	2370,90
1104,26	2364,60
1104,68	2369,00
1105,09	2348,70
1105,51	2354,50
1105,92	2380,80
1106,34	2357,50
1106,76	2370,80
1107,17	2369,00
1107,59	2375,10
1108,00	2350,80
1108,42	2361,10
1108,83	2360,00
1109,25	2357,40
1109,67	2351,40
1110,08	2352,70
1110,50	2352,40
1110,91	2357,60
1111,33	2364,50
1111,74	2354,10
1112,16	2362,90
1112,57	2367,60
1112,99	2361,00
1113,41	2363,80
1113,82	2355,90
1114,24	2373,00
1114,65	2367,30
1115,07	2354,70
1115,48	2349,20
1115,90	2189,70
1116,31	2194,60
1116,73	2192,70
1117,14	2193,00
>>>>>End Processed Spectral Data<<<<<
