SpectraSuite Data File
++++++++++++++++++++++++++++++++++++
Date: Thu Feb 11 10:04:00 EET 2016
User: OO Maya
Dark Spectrum Present: No
Reference Spectrum Present: No
Number of Sampled Component Spectra: 1
Spectrometers: MAYP11278
Integration Time (usec): 100000 (MAYP11278)
Spectra Averaged: 10 (MAYP11278)
Boxcar Smoothing: 0 (MAYP11278)
Correct for Electrical Dark: No (MAYP11278)
Strobe/Lamp Enabled: No (MAYP11278)
Correct for Detector Non-linearity: No (MAYP11278)
Correct for Stray Light: No (MAYP11278)
Number of Pixels in Processed Spectrum: 2068
>>>>>Begin Processed Spectral Data<<<<<
188,50	2300,20
188,98	2219,70
189,46	2191,60
189,94	2191,80
190,41	2338,00
190,89	2340,10
191,37	2345,70
191,85	2349,80
192,33	2358,30
192,81	2345,80
193,28	2342,50
193,76	2337,10
194,24	2346,40
194,72	2346,20
195,20	2344,70
195,68	2342,90
196,15	2351,50
196,63	2343,30
197,11	2341,20
197,59	2369,70
198,07	2343,20
198,54	2331,90
199,02	2346,00
199,50	2335,30
199,98	2346,70
200,46	2354,20
200,93	2339,20
201,41	2342,90
201,89	2351,00
202,37	2347,80
202,85	2350,10
203,32	2335,70
203,80	2346,00
204,28	2337,00
204,76	2349,40
205,24	2350,60
205,71	2340,80
206,19	2339,00
206,67	2356,20
207,15	2344,60
207,62	2349,60
208,10	2370,70
208,58	2350,80
209,06	2353,20
209,53	2346,50
210,01	2351,20
210,49	2351,80
210,97	2350,80
211,44	2343,80
211,92	2348,00
212,40	2350,70
212,88	2345,00
213,35	2363,00
213,83	2350,10
214,31	2342,80
214,78	2367,90
215,26	2349,10
215,74	2365,70
216,22	2348,30
216,69	2356,90
217,17	2354,30
217,65	2354,10
218,12	2345,20
218,60	2346,60
219,08	2358,70
219,56	2338,90
220,03	2338,70
220,51	2342,60
220,99	2350,60
221,46	2370,90
221,94	2348,30
222,42	2354,40
222,89	2344,90
223,37	2358,60
223,85	2345,10
224,32	2359,40
224,80	2351,40
225,28	2346,10
225,75	2344,70
226,23	2346,00
226,71	2342,20
227,18	2348,50
227,66	2357,30
228,14	2351,10
228,61	2363,40
229,09	2355,80
229,57	2355,60
230,04	2345,20
230,52	2345,60
231,00	2348,00
231,47	2355,40
231,95	2364,90
232,42	2352,50
232,90	2351,40
233,38	2343,40
233,85	2348,70
234,33	2353,60
234,81	2379,80
235,28	2353,50
235,76	2345,10
236,23	2350,60
236,71	2343,90
237,19	2353,50
237,66	2364,30
238,14	2341,70
238,61	2351,60
239,09	2348,00
239,57	2352,00
240,04	2341,60
240,52	2340,50
240,99	2355,20
241,47	2361,40
241,95	2349,40
242,42	2344,30
242,90	2357,90
243,37	2359,40
243,85	2340,00
244,32	2343,50
244,80	2357,00
245,28	2364,40
245,75	2346,10
246,23	2362,70
246,70	2835,00
247,18	2330,80
247,65	2352,40
248,13	2347,80
248,60	2353,80
249,08	2354,00
249,56	2339,30
250,03	2348,60
250,51	2357,90
250,98	2350,80
251,46	2371,50
251,93	2356,00
252,41	2366,90
252,88	2362,00
253,36	2347,70
253,83	2365,00
254,31	2355,90
254,78	2351,00
255,26	2355,60
255,73	2358,10
256,21	2360,90
256,68	2347,70
257,16	2358,20
257,63	2352,50
258,11	2359,40
258,58	2379,50
259,06	2353,40
259,53	2354,40
260,01	2357,70
260,48	2356,50
260,96	2367,30
261,43	2352,20
261,91	2348,00
262,38	2360,20
262,86	2341,10
263,33	2360,00
263,81	2349,50
264,28	2339,30
264,75	2354,10
265,23	2363,40
265,70	2345,70
266,18	2349,70
266,65	2356,60
267,13	2359,90
267,60	2350,30
268,08	2348,90
268,55	2354,50
269,03	2355,70
269,50	2339,50
269,97	2344,10
270,45	2339,10
270,92	2361,30
271,40	2364,00
271,87	2348,80
272,34	2355,80
272,82	2341,50
273,29	2337,40
273,77	2336,00
274,24	2348,40
274,72	2385,10
275,19	2359,70
275,66	2365,60
276,14	2346,70
276,61	2353,30
277,09	2359,30
277,56	2357,80
278,03	2343,80
278,51	2348,70
278,98	2348,30
279,45	2393,20
279,93	2349,10
280,40	2344,90
280,88	2390,40
281,35	2366,60
281,82	2383,80
282,30	2345,90
282,77	2364,10
283,24	2352,40
283,72	2349,70
284,19	2355,70
284,66	2348,10
285,14	2341,40
285,61	2358,70
286,09	2350,10
286,56	2352,50
287,03	2354,00
287,51	2346,00
287,98	2355,60
288,45	2370,20
288,93	2350,20
289,40	2352,40
289,87	2335,70
290,35	2366,10
290,82	2345,00
291,29	2354,20
291,76	2340,60
292,24	2356,20
292,71	2372,50
293,18	2345,00
293,66	2363,00
294,13	2346,00
294,60	2357,60
295,08	2355,20
295,55	2345,30
296,02	2357,40
296,49	2354,60
296,97	2368,60
297,44	2373,30
297,91	2360,20
298,39	2358,10
298,86	2356,40
299,33	2348,70
299,80	2368,40
300,28	2352,40
300,75	2356,70
301,22	2346,00
301,69	2363,50
302,17	2363,20
302,64	2360,00
303,11	2340,60
303,58	2360,20
304,06	2358,60
304,53	2346,00
305,00	2346,60
305,47	2342,80
305,95	2353,10
306,42	2362,80
306,89	2354,90
307,36	2358,60
307,84	2347,50
308,31	2350,60
308,78	2357,90
309,25	2348,70
309,73	2363,40
310,20	2363,10
310,67	2356,20
311,14	2356,70
311,61	2352,50
312,09	2350,10
312,56	2361,70
313,03	2351,60
313,50	2375,50
313,97	2345,10
314,45	2356,10
314,92	2355,60
315,39	2347,60
315,86	2346,10
316,33	2364,00
316,80	2360,60
317,28	2352,00
317,75	2355,90
318,22	2352,50
318,69	2377,90
319,16	2357,30
319,63	2347,70
320,11	2345,10
320,58	2361,10
321,05	2363,40
321,52	2363,40
321,99	2347,70
322,46	2336,30
322,94	2341,40
323,41	2376,70
323,88	2350,10
324,35	2375,30
324,82	2346,80
325,29	2351,40
325,76	2352,90
326,24	2349,10
326,71	2352,20
327,18	2350,80
327,65	2357,40
328,12	2355,60
328,59	2356,30
329,06	2356,40
329,53	2348,70
330,00	2344,00
330,48	2347,90
330,95	2348,50
331,42	2364,00
331,89	2359,40
332,36	2369,80
332,83	2345,80
333,30	2376,00
333,77	2354,90
334,24	2355,30
334,71	2366,40
335,18	2350,80
335,66	2354,50
336,13	2392,40
336,60	2345,20
337,07	2353,90
337,54	2350,70
338,01	2357,70
338,48	2347,70
338,95	2353,40
339,42	2366,30
339,89	2364,90
340,36	2344,60
340,83	2351,50
341,30	2339,60
341,77	2354,80
342,24	2370,60
342,71	2347,20
343,18	2357,80
343,65	2357,10
344,12	2356,60
344,59	2347,10
345,06	2355,20
345,53	2352,90
346,01	2355,40
346,48	2357,10
346,95	2350,80
347,42	2349,70
347,89	2364,60
348,36	2345,20
348,83	2366,90
349,30	2355,00
349,77	2338,70
350,24	2354,30
350,71	2357,20
351,18	2353,00
351,65	2347,90
352,12	2356,80
352,59	2369,90
353,05	2357,20
353,52	2348,30
353,99	2351,00
354,46	2364,40
354,93	2359,50
355,40	2358,00
355,87	2357,80
356,34	2365,70
356,81	2343,90
357,28	2366,80
357,75	2343,70
358,22	2382,40
358,69	2360,80
359,16	2342,60
359,63	2346,90
360,10	2350,50
360,57	2349,80
361,04	2360,30
361,51	2368,30
361,98	2349,20
362,45	2354,00
362,91	2351,50
363,38	2346,50
363,85	2351,50
364,32	2374,40
364,79	2357,40
365,26	2347,40
365,73	2356,60
366,20	2344,90
366,67	2345,70
367,14	2353,70
367,61	2353,90
368,07	2568,20
368,54	2340,30
369,01	2344,30
369,48	2358,50
369,95	2343,40
370,42	2361,20
370,89	2356,50
371,36	2348,90
371,83	2511,50
372,29	2352,90
372,76	2346,60
373,23	2337,40
373,70	2352,90
374,17	2351,40
374,64	2343,00
375,11	2344,60
375,57	2354,80
376,04	2340,50
376,51	2364,40
376,98	2350,80
377,45	2340,90
377,92	2345,00
378,39	2354,80
378,85	2351,40
379,32	2351,40
379,79	2349,80
380,26	2352,90
380,73	2358,20
381,19	2364,80
381,66	2350,60
382,13	2366,70
382,60	2368,20
383,07	2338,40
383,54	2356,60
384,00	2351,50
384,47	2363,50
384,94	2357,90
385,41	2405,30
385,88	2356,40
386,34	2353,90
386,81	2349,00
387,28	2368,20
387,75	2343,80
388,22	2343,40
388,68	2363,20
389,15	2352,60
389,62	2360,10
390,09	2348,20
390,55	2366,70
391,02	2359,10
391,49	2355,90
391,96	2354,50
392,42	2355,70
392,89	2357,60
393,36	2345,90
393,83	2349,90
394,29	2377,30
394,76	2353,10
395,23	2361,90
395,70	2344,10
396,16	2356,60
396,63	2398,20
397,10	2343,40
397,57	2354,50
398,03	2359,20
398,50	2343,20
398,97	2352,10
399,44	2347,00
399,90	2345,80
400,37	2364,30
400,84	2341,20
401,30	2348,70
401,77	2346,60
402,24	2361,40
402,71	2353,30
403,17	2352,80
403,64	2345,30
404,11	2370,80
404,57	2350,10
405,04	2368,70
405,51	2364,60
405,97	2362,90
406,44	2347,80
406,91	2363,20
407,37	2357,00
407,84	2374,40
408,31	2348,30
408,77	2351,50
409,24	2355,90
409,71	2342,10
410,17	2365,60
410,64	2343,60
411,11	2364,30
411,57	2343,90
412,04	2368,20
412,51	2348,20
412,97	2340,60
413,44	2352,30
413,91	2353,60
414,37	2350,30
414,84	2362,00
415,30	2365,40
415,77	2351,00
416,24	2371,60
416,70	2356,70
417,17	2345,90
417,64	2374,00
418,10	2356,40
418,57	2349,70
419,03	2353,20
419,50	2354,10
419,97	2359,00
420,43	2347,20
420,90	2361,50
421,36	2346,40
421,83	2350,80
422,30	2343,60
422,76	2357,30
423,23	2346,20
423,69	2354,20
424,16	2354,40
424,63	2356,10
425,09	2351,40
425,56	2361,70
426,02	2354,30
426,49	2369,00
426,95	2346,80
427,42	2363,20
427,89	2358,40
428,35	2356,20
428,82	2346,00
429,28	2359,30
429,75	2356,30
430,21	2355,80
430,68	2355,70
431,14	2383,90
431,61	2340,70
432,07	2348,00
432,54	2365,30
433,01	2368,50
433,47	2351,80
433,94	2342,30
434,40	2358,40
434,87	2348,80
435,33	2359,80
435,80	2352,00
436,26	2360,90
436,73	2357,60
437,19	2342,70
437,66	2361,70
438,12	2355,70
438,59	2358,40
439,05	2347,10
439,52	2346,30
439,98	2391,90
440,45	2360,30
440,91	2360,50
441,38	2365,00
441,84	2344,30
442,31	2347,10
442,77	2378,90
443,24	2342,30
443,70	2352,40
444,16	2358,30
444,63	2342,90
445,09	2372,20
445,56	2351,80
446,02	2357,90
446,49	2351,40
446,95	2356,40
447,42	2346,30
447,88	2353,30
448,35	2347,00
448,81	2345,80
449,27	2358,50
449,74	2356,50
450,20	2355,10
450,67	2343,60
451,13	2346,40
451,60	2347,50
452,06	2352,10
452,52	2356,30
452,99	2344,50
453,45	2362,30
453,92	2352,10
454,38	2351,90
454,84	2351,80
455,31	2353,50
455,77	2348,70
456,24	2348,70
456,70	2360,80
457,16	2348,30
457,63	2358,80
458,09	2349,90
458,56	2347,20
459,02	2346,80
459,48	2353,80
459,95	2347,00
460,41	2373,70
460,87	2350,20
461,34	2344,80
461,80	2365,90
462,27	2360,50
462,73	2348,90
463,19	2340,90
463,66	2361,20
464,12	2354,30
464,58	2356,80
465,05	2353,60
465,51	2344,50
465,97	2344,60
466,44	2361,40
466,90	2355,60
467,36	2354,80
467,83	2356,50
468,29	2355,20
468,75	2358,20
469,22	2358,00
469,68	2350,30
470,14	2344,50
470,61	2354,70
471,07	2355,10
471,53	2349,40
472,00	2346,60
472,46	2343,30
472,92	2347,00
473,38	2348,80
473,85	2368,00
474,31	2355,30
474,77	2346,00
475,24	2352,10
475,70	2338,90
476,16	2356,00
476,62	2346,80
477,09	2354,50
477,55	2352,10
478,01	2352,00
478,48	2366,00
478,94	2353,30
479,40	2359,80
479,86	2348,50
480,33	2371,70
480,79	2354,80
481,25	2353,70
481,71	2347,20
482,18	2351,00
482,64	2350,40
483,10	2340,90
483,56	2353,00
484,03	2342,60
484,49	2347,80
484,95	2366,10
485,41	2352,70
485,87	2352,60
486,34	2338,40
486,80	2350,60
487,26	2338,10
487,72	2353,30
488,19	2343,40
488,65	2343,10
489,11	2348,60
489,57	2353,40
490,03	2352,20
490,50	2354,80
490,96	2343,70
491,42	2353,00
491,88	2338,50
492,34	2346,50
492,81	2341,70
493,27	2362,90
493,73	2355,50
494,19	2348,40
494,65	2354,20
495,11	2351,60
495,58	2346,60
496,04	2345,70
496,50	2349,20
496,96	2347,20
497,42	2345,60
497,88	2369,70
498,35	2359,90
498,81	2345,20
499,27	2350,90
499,73	2345,10
500,19	2378,20
500,65	2349,20
501,11	2341,90
501,57	2347,50
502,04	2348,30
502,50	2356,80
502,96	2353,40
503,42	2402,60
503,88	2351,50
504,34	2355,70
504,80	2349,30
505,26	2354,80
505,73	2350,40
506,19	2345,60
506,65	2347,50
507,11	2363,20
507,57	2354,60
508,03	2355,60
508,49	2350,20
508,95	2348,20
509,41	2346,40
509,87	2339,40
510,34	2347,70
510,80	2351,40
511,26	2346,10
511,72	2361,10
512,18	2363,90
512,64	2339,00
513,10	2336,70
513,56	2343,10
514,02	2355,20
514,48	2333,50
514,94	2360,10
515,40	2368,40
515,86	2339,20
516,32	2353,40
516,78	2361,30
517,24	2363,60
517,70	2379,00
518,16	2354,50
518,63	2347,80
519,09	2398,50
519,55	2348,50
520,01	2348,70
520,47	2340,30
520,93	2346,00
521,39	2350,70
521,85	2356,20
522,31	2353,90
522,77	2350,10
523,23	2337,10
523,69	2368,40
524,15	2354,80
524,61	2346,50
525,07	2370,00
525,53	2354,40
525,99	2358,70
526,45	2363,00
526,91	2353,50
527,37	2351,60
527,83	2350,30
528,29	2347,80
528,75	2358,30
529,21	2354,40
529,66	2346,90
530,12	2345,20
530,58	2351,20
531,04	2353,90
531,50	2339,40
531,96	2364,00
532,42	2352,80
532,88	2350,10
533,34	2351,10
533,80	2356,20
534,26	2347,70
534,72	2340,10
535,18	2349,90
535,64	2350,00
536,10	2353,00
536,56	2346,00
537,02	2358,70
537,48	2339,80
537,93	2358,40
538,39	2351,80
538,85	2346,70
539,31	2373,30
539,77	2358,10
540,23	2403,90
540,69	2335,90
541,15	2373,10
541,61	2353,30
542,07	2342,10
542,52	2354,80
542,98	2350,80
543,44	2346,70
543,90	2375,10
544,36	2336,20
544,82	2374,60
545,28	2355,40
545,74	2353,60
546,19	2351,50
546,65	2371,80
547,11	2353,20
547,57	2351,80
548,03	2358,50
548,49	2352,20
548,95	2349,30
549,40	2352,60
549,86	2344,90
550,32	2376,20
550,78	2350,00
551,24	2342,00
551,70	2354,90
552,16	2353,50
552,61	2372,50
553,07	2352,30
553,53	2341,90
553,99	2353,30
554,45	2345,30
554,90	2344,20
555,36	2353,40
555,82	2353,40
556,28	2369,50
556,74	2354,20
557,19	2359,00
557,65	2338,50
558,11	2351,10
558,57	2374,20
559,03	2344,80
559,48	2347,20
559,94	2346,40
560,40	2343,50
560,86	2341,20
561,32	2353,30
561,77	2351,60
562,23	2347,80
562,69	2348,90
563,15	2341,40
563,60	2351,00
564,06	2361,30
564,52	2338,70
564,98	2350,80
565,43	2346,20
565,89	2352,00
566,35	2349,00
566,81	2361,30
567,26	2351,20
567,72	2343,90
568,18	2349,90
568,64	2357,70
569,09	2346,20
569,55	2348,90
570,01	2358,60
570,47	2350,30
570,92	2349,10
571,38	2355,40
571,84	2354,50
572,29	2350,10
572,75	2354,00
573,21	2353,00
573,67	2345,40
574,12	2346,10
574,58	2350,50
575,04	2365,00
575,49	2359,20
575,95	2342,10
576,41	2351,40
576,86	2337,80
577,32	2364,90
577,78	2346,80
578,23	2347,20
578,69	2339,30
579,15	2365,30
579,60	2357,40
580,06	2342,10
580,52	2352,40
580,97	2348,80
581,43	2352,70
581,89	2347,10
582,34	2350,70
582,80	2347,60
583,26	2337,30
583,71	2345,40
584,17	2356,20
584,63	2350,00
585,08	2354,40
585,54	2346,20
586,00	2378,50
586,45	2343,90
586,91	2350,10
587,36	2348,70
587,82	2346,60
588,28	2357,70
588,73	2342,50
589,19	2351,00
589,64	2347,60
590,10	2345,10
590,56	2356,50
591,01	2358,50
591,47	2344,40
591,92	2336,00
592,38	2364,00
592,84	2352,00
593,29	2351,40
593,75	2347,50
594,20	2353,50
594,66	2352,80
595,11	2348,70
595,57	2362,10
596,03	2345,40
596,48	2341,10
596,94	2362,50
597,39	2362,10
597,85	2361,10
598,30	2349,50
598,76	2340,50
599,22	2349,60
599,67	2362,00
600,13	2343,70
600,58	2358,10
601,04	2368,90
601,49	2353,50
601,95	2353,10
602,40	2341,40
602,86	2383,60
603,31	2345,20
603,77	2352,30
604,22	2342,50
604,68	2334,70
605,13	2354,40
605,59	2346,10
606,04	2350,70
606,50	2352,50
606,95	2339,10
607,41	2355,40
607,86	2351,00
608,32	2354,60
608,77	2355,00
609,23	2349,30
609,68	2377,10
610,14	2359,90
610,59	2352,10
611,05	2343,60
611,50	2357,40
611,96	2339,10
612,41	2372,00
612,87	2353,20
613,32	2350,70
613,78	2381,30
614,23	2340,60
614,69	2338,50
615,14	2336,50
615,59	2340,70
616,05	2349,20
616,50	2354,40
616,96	2343,40
617,41	2346,60
617,87	2347,70
618,32	2354,50
618,77	2345,20
619,23	2347,60
619,68	2348,20
620,14	2357,80
620,59	2349,80
621,05	2356,00
621,50	2360,70
621,95	2353,00
622,41	2353,80
622,86	2365,70
623,32	2356,80
623,77	2344,80
624,22	2341,50
624,68	2360,20
625,13	2341,80
625,59	2346,70
626,04	2354,00
626,49	2338,80
626,95	2356,60
627,40	2350,30
627,85	2342,50
628,31	2359,00
628,76	2357,50
629,22	2332,70
629,67	2350,00
630,12	2346,50
630,58	2346,20
631,03	2355,10
631,48	2351,00
631,94	2353,20
632,39	2353,60
632,84	2362,10
633,30	2343,20
633,75	2348,40
634,20	2342,50
634,66	2342,00
635,11	2345,50
635,56	2350,20
636,02	2345,30
636,47	2335,30
636,92	2355,10
637,38	2344,80
637,83	2343,00
638,28	2362,40
638,74	2355,10
639,19	2341,30
639,64	2349,30
640,09	2341,20
640,55	2334,80
641,00	2354,90
641,45	2357,30
641,91	2334,10
642,36	2346,80
642,81	2349,20
643,26	2337,00
643,72	2343,70
644,17	2350,70
644,62	2337,10
645,07	2345,00
645,53	2343,00
645,98	2338,70
646,43	2349,90
646,89	2352,00
647,34	2352,00
647,79	2352,20
648,24	2351,30
648,70	2347,50
649,15	2340,70
649,60	2359,10
650,05	2356,70
650,50	2397,60
650,96	2339,40
651,41	2344,10
651,86	2344,70
652,31	2350,50
652,77	2339,60
653,22	2350,50
653,67	2339,90
654,12	2342,90
654,57	2348,80
655,03	2353,30
655,48	2344,80
655,93	2341,00
656,38	2355,50
656,83	2344,10
657,29	2346,00
657,74	2356,50
658,19	2356,20
658,64	2340,10
659,09	2349,10
659,54	2338,10
660,00	2394,60
660,45	2345,40
660,90	2360,00
661,35	2350,50
661,80	2341,30
662,25	2344,10
662,71	2342,80
663,16	2334,70
663,61	2351,80
664,06	2345,20
664,51	2345,00
664,96	2351,80
665,41	2339,80
665,87	2349,50
666,32	2338,00
666,77	2353,30
667,22	2350,40
667,67	2379,80
668,12	2362,00
668,57	2344,60
669,02	2354,80
669,48	2346,90
669,93	2373,60
670,38	2335,00
670,83	2339,10
671,28	2360,90
671,73	2349,10
672,18	2365,90
672,63	2371,20
673,08	2350,10
673,53	2352,60
673,99	2360,40
674,44	2384,00
674,89	2351,40
675,34	2355,20
675,79	2336,60
676,24	2341,60
676,69	2346,40
677,14	2348,80
677,59	2352,40
678,04	2346,80
678,49	2377,50
678,94	2341,30
679,39	2343,10
679,84	2352,40
680,29	2335,40
680,74	2350,40
681,20	2345,50
681,65	2333,70
682,10	2333,60
682,55	2339,90
683,00	2353,90
683,45	2354,70
683,90	2353,50
684,35	2354,20
684,80	2362,30
685,25	2354,10
685,70	2350,60
686,15	2353,70
686,60	2343,40
687,05	2341,50
687,50	2343,70
687,95	2347,70
688,40	2351,40
688,85	2347,30
689,30	2378,70
689,75	2352,60
690,20	2334,80
690,65	2350,50
691,10	2345,70
691,55	2334,10
692,00	2344,70
692,45	2334,30
692,90	2345,80
693,34	2342,20
693,79	2357,10
694,24	2354,40
694,69	2352,30
695,14	2349,90
695,59	2396,10
696,04	2348,90
696,49	2350,30
696,94	2368,90
697,39	2347,60
697,84	2341,70
698,29	2351,10
698,74	2338,80
699,19	2357,00
699,64	2355,70
700,09	2342,40
700,53	2348,60
700,98	2354,10
701,43	2361,30
701,88	2389,30
702,33	2337,60
702,78	2359,20
703,23	2343,00
703,68	2344,10
704,13	2346,80
704,58	2347,20
705,02	2344,00
705,47	2364,40
705,92	2363,00
706,37	2353,70
706,82	2338,30
707,27	2354,50
707,72	2349,10
708,17	2350,90
708,61	2353,90
709,06	2360,70
709,51	2348,90
709,96	2344,50
710,41	2347,30
710,86	2342,90
711,31	2345,70
711,75	2354,30
712,20	2348,00
712,65	2345,40
713,10	2343,50
713,55	2370,20
714,00	2345,80
714,44	2351,70
714,89	2361,40
715,34	2359,90
715,79	2345,40
716,24	2351,00
716,69	2343,60
717,13	2343,80
717,58	2337,10
718,03	2337,40
718,48	2350,60
718,93	2367,90
719,37	2341,10
719,82	2341,60
720,27	2349,90
720,72	2345,00
721,17	2341,40
721,61	2350,50
722,06	2341,60
722,51	2352,40
722,96	2349,90
723,40	2340,60
723,85	2337,60
724,30	2350,90
724,75	2335,70
725,19	2357,70
725,64	2341,10
726,09	2348,80
726,54	2345,00
726,98	2343,90
727,43	2366,80
727,88	2338,30
728,33	2363,40
728,77	2359,00
729,22	2341,70
729,67	2362,50
730,12	2340,10
730,56	2358,40
731,01	2339,80
731,46	2348,80
731,90	2354,00
732,35	2357,60
732,80	2350,10
733,25	2342,40
733,69	2355,10
734,14	2350,10
734,59	2344,90
735,03	2357,00
735,48	2352,80
735,93	2346,90
736,37	2381,40
736,82	2340,90
737,27	2353,90
737,71	2358,40
738,16	2356,10
738,61	2348,40
739,05	2345,90
739,50	2348,70
739,95	2335,70
740,39	2366,40
740,84	2354,90
741,29	2340,30
741,73	2353,10
742,18	2353,30
742,63	2349,80
743,07	2349,40
743,52	2339,20
743,97	2340,20
744,41	2344,30
744,86	2363,50
745,31	2357,40
745,75	2358,20
746,20	2355,50
746,64	2364,70
747,09	2333,50
747,54	2341,10
747,98	2334,10
748,43	2355,00
748,87	2343,00
749,32	2343,30
749,77	2350,40
750,21	2382,50
750,66	2347,30
751,10	2347,50
751,55	2336,60
752,00	2340,50
752,44	2346,20
752,89	2343,80
753,33	2368,60
753,78	2340,70
754,22	2347,40
754,67	2335,50
755,12	2341,50
755,56	2339,30
756,01	2343,40
756,45	2345,30
756,90	2358,30
757,34	2349,80
757,79	2366,30
758,23	2349,10
758,68	2348,20
759,13	2351,30
759,57	2343,70
760,02	2340,20
760,46	2344,10
760,91	2351,30
761,35	2343,90
761,80	2352,40
762,24	2362,70
762,69	2345,60
763,13	2336,30
763,58	2345,40
764,02	2353,80
764,47	2350,00
764,91	2344,40
765,36	2344,70
765,80	2344,10
766,25	2336,40
766,69	2336,00
767,14	2346,90
767,58	2354,80
768,03	2351,90
768,47	2354,70
768,92	2348,50
769,36	2351,50
769,81	2370,50
770,25	2341,10
770,70	2349,90
771,14	2341,70
771,58	2335,60
772,03	2357,00
772,47	2352,00
772,92	2352,80
773,36	2335,00
773,81	2345,70
774,25	2345,60
774,70	2330,50
775,14	2348,10
775,58	2342,30
776,03	2346,30
776,47	2348,60
776,92	2339,30
777,36	2344,40
777,81	2344,60
778,25	2350,60
778,69	2350,60
779,14	2348,90
779,58	2350,30
780,03	2376,80
780,47	2359,40
780,91	2350,10
781,36	2360,70
781,80	2354,10
782,24	2344,50
782,69	2356,10
783,13	2336,10
783,58	2347,80
784,02	2353,80
784,46	2358,80
784,91	2346,10
785,35	2347,70
785,79	2345,20
786,24	2343,60
786,68	2350,80
787,13	2363,00
787,57	2362,30
788,01	2340,30
788,46	2344,00
788,90	2350,40
789,34	2376,70
789,79	2342,10
790,23	2339,70
790,67	2350,10
791,12	2339,50
791,56	2338,60
792,00	2356,90
792,45	2344,30
792,89	2354,30
793,33	2344,80
793,78	2392,40
794,22	2360,90
794,66	2351,50
795,10	2351,60
795,55	2350,60
795,99	2339,80
796,43	2356,00
796,88	2346,00
797,32	2347,20
797,76	2346,40
798,20	2335,20
798,65	2346,90
799,09	2359,20
799,53	2351,30
799,98	2344,60
800,42	2369,30
800,86	2355,80
801,30	2341,70
801,75	2351,20
802,19	2349,50
802,63	2342,60
803,07	2360,20
803,52	2363,80
803,96	2360,70
804,40	2358,30
804,84	2350,20
805,29	2345,30
805,73	2364,30
806,17	2373,50
806,61	2369,10
807,05	2358,80
807,50	2371,30
807,94	2344,20
808,38	2347,70
808,82	2341,90
809,27	2350,50
809,71	2349,20
810,15	2343,10
810,59	2340,00
811,03	2350,60
811,47	2362,90
811,92	2382,40
812,36	2344,00
812,80	2342,10
813,24	2352,90
813,68	2371,40
814,13	2355,60
814,57	2348,00
815,01	2355,90
815,45	2354,90
815,89	2347,30
816,33	2344,00
816,78	2338,10
817,22	2349,00
817,66	2354,00
818,10	2350,10
818,54	2358,70
818,98	2343,90
819,42	2357,20
819,87	2363,90
820,31	2346,60
820,75	2354,80
821,19	2343,80
821,63	2350,80
822,07	2343,30
822,51	2364,00
822,95	2341,30
823,40	2347,50
823,84	2356,70
824,28	2339,10
824,72	2349,40
825,16	2348,00
825,60	2352,60
826,04	2354,20
826,48	2342,80
826,92	2347,40
827,36	2329,30
827,81	2349,70
828,25	2355,20
828,69	2362,90
829,13	2343,50
829,57	2357,90
830,01	2352,10
830,45	2344,30
830,89	2365,40
831,33	2350,20
831,77	2368,50
832,21	2355,40
832,65	2352,50
833,09	2339,10
833,53	2351,20
833,97	2344,70
834,41	2365,70
834,85	2355,00
835,29	2347,40
835,74	2342,30
836,18	2358,60
836,62	2348,00
837,06	2359,00
837,50	2342,50
837,94	2362,10
838,38	2340,40
838,82	2343,40
839,26	2354,80
839,70	2351,80
840,14	2367,50
840,58	2371,00
841,02	2348,80
841,46	2364,70
841,90	2334,40
842,34	2340,90
842,78	2338,00
843,22	2343,60
843,66	2357,40
844,10	2349,80
844,53	2353,80
844,97	2349,80
845,41	2346,10
845,85	2360,50
846,29	2345,10
846,73	2356,10
847,17	2341,80
847,61	2340,50
848,05	2351,30
848,49	2349,10
848,93	2348,70
849,37	2344,10
849,81	2357,40
850,25	2361,90
850,69	2357,20
851,13	2342,90
851,57	2361,80
852,01	2337,80
852,44	2352,70
852,88	2361,20
853,32	2346,30
853,76	2341,30
854,20	2353,90
854,64	2335,60
855,08	2357,80
855,52	2333,90
855,96	2342,80
856,40	2358,90
856,83	2362,20
857,27	2350,00
857,71	2350,90
858,15	2348,70
858,59	2340,70
859,03	2367,90
859,47	2336,10
859,91	2341,40
860,34	2348,30
860,78	2348,30
861,22	2348,10
861,66	2358,30
862,10	2338,60
862,54	2348,10
862,98	2360,00
863,41	2341,80
863,85	2345,60
864,29	2356,30
864,73	2343,00
865,17	2351,00
865,61	2348,60
866,04	2334,30
866,48	2344,70
866,92	2333,00
867,36	2354,20
867,80	2346,70
868,23	2352,60
868,67	2349,10
869,11	2346,20
869,55	2357,40
869,99	2347,90
870,42	2366,20
870,86	2374,50
871,30	2345,10
871,74	2350,10
872,18	2349,80
872,61	2346,90
873,05	2347,60
873,49	2352,90
873,93	2347,00
874,36	2362,60
874,80	2356,80
875,24	2343,90
875,68	2339,20
876,11	2364,30
876,55	2334,80
876,99	2354,20
877,43	2347,00
877,86	2348,30
878,30	2349,50
878,74	2347,50
879,18	2354,50
879,61	2349,70
880,05	2365,50
880,49	2342,80
880,93	2341,00
881,36	2344,00
881,80	2353,20
882,24	2356,90
882,67	2346,20
883,11	2347,40
883,55	2348,80
883,99	2347,10
884,42	2345,00
884,86	2352,80
885,30	2350,00
885,73	2352,00
886,17	2355,20
886,61	2348,90
887,04	2345,20
887,48	2370,40
887,92	2342,50
888,35	2339,70
888,79	2347,40
889,23	2347,70
889,66	2382,00
890,10	2340,40
890,54	2358,70
890,97	2346,50
891,41	2354,20
891,85	2355,20
892,28	2338,50
892,72	2343,00
893,16	2342,80
893,59	2341,40
894,03	2346,20
894,46	2350,80
894,90	2344,90
895,34	2349,20
895,77	2351,30
896,21	2341,90
896,65	2351,00
897,08	2356,10
897,52	2345,70
897,95	2346,20
898,39	2345,20
898,83	2352,70
899,26	2359,60
899,70	2346,80
900,13	2345,50
900,57	2347,00
901,01	2355,70
901,44	2354,10
901,88	2350,60
902,31	2365,80
902,75	2368,60
903,18	2341,90
903,62	2343,70
904,06	2368,10
904,49	2346,80
904,93	2357,50
905,36	2342,70
905,80	2347,00
906,23	2342,20
906,67	2363,80
907,10	2347,90
907,54	2355,60
907,97	2350,80
908,41	2348,50
908,84	2356,20
909,28	2360,90
909,72	2341,80
910,15	2337,00
910,59	2354,20
911,02	2354,60
911,46	2344,00
911,89	2344,60
912,33	2343,30
912,76	2350,30
913,20	2345,50
913,63	2359,70
914,07	2348,30
914,50	2351,50
914,94	2341,80
915,37	2341,80
915,81	2348,60
916,24	2344,50
916,67	2353,40
917,11	2348,80
917,54	2359,50
917,98	2345,90
918,41	2355,50
918,85	2342,40
919,28	2347,60
919,72	2347,70
920,15	2355,10
920,59	2357,00
921,02	2351,10
921,46	2359,90
921,89	2360,00
922,32	2343,60
922,76	2341,10
923,19	2341,80
923,63	2353,60
924,06	2365,70
924,50	2355,30
924,93	2341,60
925,36	2361,20
925,80	2342,70
926,23	2355,10
926,67	2369,20
927,10	2349,40
927,53	2358,20
927,97	2339,20
928,40	2372,00
928,84	2347,60
929,27	2337,50
929,70	2354,20
930,14	2345,80
930,57	2349,90
931,00	2357,00
931,44	2345,00
931,87	2354,60
932,31	2335,80
932,74	2364,80
933,17	2361,60
933,61	2374,50
934,04	2348,30
934,47	2360,90
934,91	2361,90
935,34	2360,00
935,77	2352,10
936,21	2340,50
936,64	2350,60
937,07	2346,30
937,51	2354,20
937,94	2346,50
938,37	2358,80
938,81	2343,80
939,24	2347,10
939,67	2355,90
940,11	2338,50
940,54	2351,40
940,97	2359,70
941,41	2375,50
941,84	2346,00
942,27	2353,20
942,70	2341,50
943,14	2346,00
943,57	2360,70
944,00	2336,20
944,44	2338,60
944,87	2355,20
945,30	2351,90
945,73	2357,40
946,17	2343,90
946,60	2351,00
947,03	2351,40
947,46	2360,20
947,90	2346,60
948,33	2345,80
948,76	2355,30
949,19	2339,00
949,63	2337,20
950,06	2341,10
950,49	2376,40
950,92	2363,80
951,36	2345,50
951,79	2346,30
952,22	2355,30
952,65	2339,80
953,08	2360,70
953,52	2346,60
953,95	2369,90
954,38	2339,50
954,81	2344,40
955,25	2346,90
955,68	2344,80
956,11	2344,50
956,54	2352,40
956,97	2340,20
957,40	2358,80
957,84	2388,30
958,27	2338,80
958,70	2357,90
959,13	2355,10
959,56	2343,70
960,00	2344,80
960,43	2344,50
960,86	2335,40
961,29	2349,20
961,72	2356,00
962,15	2352,70
962,58	2358,60
963,02	2358,00
963,45	2343,70
963,88	2358,20
964,31	2346,40
964,74	2352,90
965,17	2345,30
965,60	2345,00
966,04	2354,30
966,47	2348,90
966,90	2347,90
967,33	2355,90
967,76	2346,00
968,19	2344,20
968,62	2354,10
969,05	2395,50
969,48	2355,00
969,92	2353,20
970,35	2352,90
970,78	2338,90
971,21	2344,50
971,64	2354,70
972,07	2347,90
972,50	2346,00
972,93	2344,70
973,36	2342,90
973,79	2348,00
974,22	2354,80
974,65	2349,50
975,09	2355,60
975,52	2354,10
975,95	2349,30
976,38	2347,70
976,81	2346,50
977,24	2353,10
977,67	2333,20
978,10	2353,60
978,53	2348,30
978,96	2346,90
979,39	2349,10
979,82	2343,70
980,25	2356,30
980,68	2351,90
981,11	2347,00
981,54	2351,60
981,97	2360,40
982,40	2350,50
982,83	2347,80
983,26	2342,20
983,69	2342,60
984,12	2341,90
984,55	2359,70
984,98	2363,10
985,41	2341,50
985,84	2335,20
986,27	2348,70
986,70	2352,70
987,13	2347,60
987,56	2345,00
987,99	2357,20
988,42	2349,30
988,85	2355,10
989,28	2345,40
989,71	2355,60
990,14	2352,30
990,57	2345,60
991,00	2354,90
991,43	2350,30
991,86	2351,80
992,28	2367,10
992,71	2341,10
993,14	2344,70
993,57	2345,00
994,00	2342,40
994,43	2341,90
994,86	2349,80
995,29	2353,10
995,72	2349,20
996,15	2352,50
996,58	2341,80
997,01	2341,20
997,43	2337,40
997,86	2361,80
998,29	2355,30
998,72	2346,70
999,15	2354,20
999,58	2341,80
1000,01	2366,20
1000,44	2349,20
1000,87	2353,60
1001,29	2360,30
1001,72	2347,10
1002,15	2348,30
1002,58	2353,70
1003,01	2351,60
1003,44	2351,80
1003,87	2346,10
1004,29	2355,30
1004,72	2342,80
1005,15	2353,70
1005,58	2349,10
1006,01	2363,70
1006,44	2345,10
1006,87	2339,00
1007,29	2356,00
1007,72	2348,50
1008,15	2350,70
1008,58	2338,70
1009,01	2342,40
1009,43	2343,10
1009,86	2382,70
1010,29	2359,50
1010,72	2357,60
1011,15	2356,10
1011,57	2353,10
1012,00	2362,30
1012,43	2350,40
1012,86	2355,30
1013,29	2351,60
1013,71	2355,10
1014,14	2358,00
1014,57	2343,90
1015,00	2361,00
1015,43	2339,50
1015,85	2359,70
1016,28	2344,30
1016,71	2352,00
1017,14	2339,80
1017,56	2352,90
1017,99	2340,50
1018,42	2541,90
1018,85	2343,50
1019,27	2336,80
1019,70	2380,40
1020,13	2364,00
1020,56	2350,80
1020,98	2349,90
1021,41	2350,80
1021,84	2355,70
1022,26	2352,10
1022,69	2357,10
1023,12	2349,90
1023,55	2389,20
1023,97	2360,30
1024,40	2359,50
1024,83	2359,50
1025,25	2351,80
1025,68	2354,00
1026,11	2358,60
1026,53	2348,00
1026,96	2340,40
1027,39	2372,60
1027,82	2361,40
1028,24	2354,60
1028,67	2357,30
1029,10	2351,30
1029,52	2352,30
1029,95	2376,70
1030,38	2351,60
1030,80	2352,40
1031,23	2358,70
1031,65	2364,10
1032,08	2338,50
1032,51	2353,10
1032,93	2355,00
1033,36	2350,80
1033,79	2362,60
1034,21	2341,10
1034,64	2346,80
1035,07	2356,70
1035,49	2354,20
1035,92	2347,10
1036,34	2376,10
1036,77	2340,80
1037,20	2347,90
1037,62	2350,70
1038,05	2340,10
1038,47	2355,80
1038,90	2358,70
1039,33	2357,40
1039,75	2365,50
1040,18	2366,30
1040,60	2348,40
1041,03	2347,30
1041,46	2353,00
1041,88	2352,90
1042,31	2368,80
1042,73	2365,10
1043,16	2356,80
1043,58	2365,90
1044,01	2350,70
1044,44	2356,90
1044,86	2342,80
1045,29	2353,00
1045,71	2344,20
1046,14	2342,30
1046,56	2354,50
1046,99	2353,60
1047,41	2343,40
1047,84	2356,00
1048,26	2357,50
1048,69	2342,30
1049,12	2367,70
1049,54	2360,50
1049,97	2365,10
1050,39	2345,20
1050,82	2350,10
1051,24	2355,50
1051,67	2358,20
1052,09	2370,00
1052,52	2365,20
1052,94	2347,40
1053,37	2362,60
1053,79	2332,80
1054,22	2355,10
1054,64	2340,80
1055,07	2355,90
1055,49	2343,70
1055,91	2351,60
1056,34	2358,70
1056,76	2376,60
1057,19	2363,70
1057,61	2362,50
1058,04	2354,50
1058,46	2394,60
1058,89	2340,90
1059,31	2354,90
1059,74	2359,50
1060,16	2355,70
1060,58	2348,80
1061,01	2344,90
1061,43	2360,90
1061,86	2351,90
1062,28	2343,10
1062,71	2359,20
1063,13	2370,80
1063,55	2355,40
1063,98	2352,40
1064,40	2347,10
1064,83	2364,30
1065,25	2360,50
1065,67	2347,90
1066,10	2346,60
1066,52	2341,20
1066,95	2363,90
1067,37	2354,00
1067,79	2351,40
1068,22	2359,40
1068,64	2348,50
1069,07	2372,00
1069,49	2357,50
1069,91	2353,00
1070,34	2342,60
1070,76	2360,90
1071,18	2360,40
1071,61	2362,40
1072,03	2352,10
1072,45	2362,80
1072,88	2347,20
1073,30	2343,90
1073,72	2343,70
1074,15	2359,00
1074,57	2350,40
1074,99	2339,60
1075,42	2341,20
1075,84	2346,40
1076,26	2355,80
1076,69	2344,70
1077,11	2342,70
1077,53	2347,30
1077,96	2364,20
1078,38	2351,30
1078,80	2358,30
1079,23	2367,70
1079,65	2338,70
1080,07	2351,80
1080,50	2350,30
1080,92	2347,70
1081,34	2359,70
1081,76	2355,90
1082,19	2357,00
1082,61	2353,40
1083,03	2347,60
1083,45	2354,80
1083,88	2358,00
1084,30	2350,60
1084,72	2361,10
1085,14	2355,00
1085,57	2349,90
1085,99	2368,00
1086,41	2342,80
1086,83	2349,70
1087,26	2356,70
1087,68	2338,50
1088,10	2357,30
1088,52	2674,10
1088,95	2348,60
1089,37	2346,50
1089,79	2349,20
1090,21	2350,50
1090,64	2365,10
1091,06	2351,30
1091,48	2345,10
1091,90	2353,10
1092,32	2347,80
1092,75	2347,20
1093,17	2352,60
1093,59	2350,20
1094,01	2358,40
1094,43	2349,00
1094,85	2350,30
1095,28	2349,60
1095,70	2348,70
1096,12	2347,10
1096,54	2351,30
1096,96	2350,80
1097,39	2346,90
1097,81	2351,70
1098,23	2349,70
1098,65	2354,30
1099,07	2356,60
1099,49	2364,70
1099,91	2349,00
1100,34	2349,80
1100,76	2347,70
1101,18	2345,90
1101,60	2344,70
1102,02	2352,20
1102,44	2340,60
1102,86	2349,30
1103,28	2350,90
1103,71	2353,00
1104,13	2354,70
1104,55	2427,40
1104,97	2367,20
1105,39	2334,70
1105,81	2356,60
1106,23	2351,80
1106,65	2342,60
1107,07	2352,80
1107,49	2334,60
1107,92	2341,10
1108,34	2361,50
1108,76	2335,40
1109,18	2352,40
1109,60	2349,30
1110,02	2355,40
1110,44	2331,00
1110,86	2345,00
1111,28	2339,30
1111,70	2343,10
1112,12	2340,60
1112,54	2339,10
1112,96	2336,00
1113,38	2341,70
1113,80	2343,00
1114,22	2339,90
1114,64	2350,90
1115,06	2352,80
1115,49	2341,00
1115,91	2349,50
1116,33	2342,50
1116,75	2351,10
1117,17	2347,10
1117,59	2341,30
1118,01	2337,00
1118,43	2186,60
1118,85	2190,30
1119,27	2190,80
1119,69	2190,20
>>>>>End Processed Spectral Data<<<<<
