SpectraSuite Data File
++++++++++++++++++++++++++++++++++++
Date: Tue Oct 14 08:39:59 EEST 2014
User: OO Maya
Dark Spectrum Present: No
Reference Spectrum Present: No
Number of Sampled Component Spectra: 1
Spectrometers: MAYP11278
Integration Time (usec): 100000 (MAYP11278)
Spectra Averaged: 10 (MAYP11278)
Boxcar Smoothing: 0 (MAYP11278)
Correct for Electrical Dark: No (MAYP11278)
Strobe/Lamp Enabled: No (MAYP11278)
Correct for Detector Non-linearity: No (MAYP11278)
Correct for Stray Light: No (MAYP11278)
Number of Pixels in Processed Spectrum: 2068
>>>>>Begin Processed Spectral Data<<<<<
188,22	2307,20
188,70	2225,20
189,18	2192,70
189,66	2194,70
190,13	2362,00
190,61	2366,30
191,09	2367,70
191,57	2371,60
192,05	2384,90
192,53	2368,20
193,00	2369,80
193,48	2362,80
193,96	2372,20
194,44	2371,30
194,92	2374,20
195,40	2366,40
195,87	2377,20
196,35	2365,70
196,83	2369,30
197,31	2396,20
197,79	2368,10
198,26	2360,10
198,74	2369,70
199,22	2362,90
199,70	2372,20
200,18	2378,00
200,65	2366,40
201,13	2365,40
201,61	2378,40
202,09	2373,20
202,56	2378,40
203,04	2359,70
203,52	2374,90
204,00	2361,00
204,47	2381,70
204,95	2384,50
205,43	2364,90
205,91	2368,70
206,39	2386,90
206,86	2371,50
207,34	2380,90
207,82	2397,00
208,30	2377,20
208,77	2377,10
209,25	2372,00
209,73	2382,50
210,20	2377,40
210,68	2371,70
211,16	2374,30
211,64	2379,40
212,11	2377,70
212,59	2369,40
213,07	2391,80
213,55	2385,00
214,02	2370,30
214,50	2396,50
214,98	2378,30
215,45	2391,20
215,93	2381,40
216,41	2383,50
216,89	2381,80
217,36	2381,10
217,84	2372,10
218,32	2377,90
218,79	2395,70
219,27	2370,80
219,75	2370,00
220,22	2377,50
220,70	2377,60
221,18	2397,50
221,65	2375,10
222,13	2386,50
222,61	2378,70
223,08	2388,90
223,56	2375,30
224,04	2386,80
224,51	2385,30
224,99	2373,60
225,47	2372,80
225,94	2381,10
226,42	2379,10
226,90	2378,90
227,37	2390,10
227,85	2379,80
228,33	2383,30
228,80	2391,10
229,28	2389,70
229,76	2384,40
230,23	2383,10
230,71	2382,90
231,18	2388,70
231,66	2400,60
232,14	2388,80
232,61	2379,80
233,09	2376,30
233,57	2387,40
234,04	2392,80
234,52	2420,60
234,99	2394,90
235,47	2388,70
235,95	2383,70
236,42	2383,10
236,90	2403,30
237,37	2417,30
237,85	2389,60
238,33	2396,10
238,80	2397,20
239,28	2399,90
239,75	2397,70
240,23	2394,70
240,70	2411,70
241,18	2419,60
241,66	2404,80
242,13	2411,90
242,61	2421,00
243,08	2435,80
243,56	2415,60
244,03	2425,90
244,51	2442,90
244,99	2460,80
245,46	2459,50
245,94	2486,90
246,41	2986,30
246,89	2498,30
247,36	2552,80
247,84	2593,80
248,31	2642,90
248,79	2666,60
249,26	2679,40
249,74	2757,10
250,22	2827,20
250,69	2958,00
251,17	3318,70
251,64	3971,40
252,12	4997,80
252,59	10078,70
253,07	24858,70
253,54	38353,50
254,02	37090,90
254,49	11101,90
254,97	3993,80
255,44	3053,10
255,92	2848,10
256,39	2741,50
256,87	2671,20
257,34	2629,00
257,82	2594,40
258,29	2589,50
258,77	2539,90
259,24	2510,90
259,72	2501,40
260,19	2490,40
260,67	2494,90
261,14	2464,20
261,61	2450,40
262,09	2457,00
262,56	2432,00
263,04	2443,00
263,51	2435,10
263,99	2417,10
264,46	2457,70
264,94	2497,00
265,41	2503,00
265,89	2467,80
266,36	2420,80
266,83	2418,00
267,31	2400,70
267,78	2404,00
268,26	2406,30
268,73	2405,50
269,21	2390,30
269,68	2393,60
270,15	2393,10
270,63	2406,50
271,10	2410,80
271,58	2395,80
272,05	2401,70
272,53	2392,20
273,00	2380,20
273,47	2381,70
273,95	2396,70
274,42	2442,80
274,90	2420,70
275,37	2432,00
275,84	2406,60
276,32	2406,20
276,79	2405,90
277,26	2406,40
277,74	2387,30
278,21	2393,40
278,69	2387,50
279,16	2442,40
279,63	2395,40
280,11	2407,70
280,58	2455,50
281,05	2425,30
281,53	2441,70
282,00	2402,90
282,48	2431,30
282,95	2408,40
283,42	2402,60
283,90	2394,50
284,37	2391,00
284,84	2388,90
285,32	2401,70
285,79	2394,00
286,26	2395,60
286,74	2400,50
287,21	2388,00
287,68	2403,50
288,16	2410,00
288,63	2415,70
289,10	2474,20
289,58	2474,50
290,05	2452,50
290,52	2392,00
291,00	2399,00
291,47	2388,90
291,94	2404,30
292,41	2432,70
292,89	2401,70
293,36	2411,90
293,83	2410,50
294,31	2423,10
294,78	2438,90
295,25	2456,90
295,73	2591,70
296,20	3234,00
296,67	4142,40
297,14	3936,80
297,62	2722,10
298,09	2445,90
298,56	2415,30
299,03	2395,50
299,51	2418,30
299,98	2397,60
300,45	2407,30
300,92	2403,80
301,40	2463,50
301,87	2602,90
302,34	2712,30
302,82	2531,50
303,29	2431,10
303,76	2406,70
304,23	2394,10
304,70	2386,20
305,18	2387,90
305,65	2404,50
306,12	2407,30
306,59	2402,80
307,07	2411,70
307,54	2402,20
308,01	2408,90
308,48	2422,40
308,95	2419,80
309,43	2447,20
309,90	2463,90
310,37	2517,50
310,84	2600,50
311,32	2732,40
311,79	3176,50
312,26	4895,70
312,73	7609,60
313,20	8313,40
313,68	5658,90
314,15	3002,60
314,62	2512,90
315,09	2438,70
315,56	2412,60
316,03	2426,70
316,51	2412,10
316,98	2404,60
317,45	2410,30
317,92	2398,30
318,39	2432,80
318,86	2398,40
319,34	2389,90
319,81	2380,80
320,28	2400,80
320,75	2406,40
321,22	2402,80
321,69	2393,10
322,16	2384,10
322,64	2386,90
323,11	2409,60
323,58	2390,20
324,05	2418,40
324,52	2374,30
324,99	2389,00
325,46	2385,50
325,94	2390,60
326,41	2384,40
326,88	2387,50
327,35	2395,70
327,82	2393,90
328,29	2390,50
328,76	2395,20
329,23	2382,60
329,70	2387,80
330,18	2378,20
330,65	2386,20
331,12	2398,70
331,59	2399,00
332,06	2417,40
332,53	2395,20
333,00	2421,20
333,47	2428,00
333,94	2488,60
334,41	2587,10
334,88	2534,30
335,35	2461,50
335,83	2434,40
336,30	2384,90
336,77	2395,90
337,24	2387,40
337,71	2393,60
338,18	2383,70
338,65	2392,90
339,12	2404,80
339,59	2397,20
340,06	2377,90
340,53	2386,10
341,00	2381,80
341,47	2392,00
341,94	2403,70
342,41	2384,10
342,88	2387,40
343,35	2399,70
343,82	2386,90
344,29	2387,10
344,76	2388,60
345,23	2382,00
345,70	2386,50
346,17	2394,60
346,64	2384,30
347,11	2386,70
347,58	2406,80
348,05	2388,20
348,52	2400,80
348,99	2391,60
349,46	2381,00
349,93	2390,50
350,40	2405,20
350,87	2386,30
351,34	2379,80
351,81	2393,30
352,28	2413,10
352,75	2389,40
353,22	2387,50
353,69	2396,00
354,16	2401,40
354,63	2399,10
355,10	2399,30
355,57	2403,00
356,04	2415,00
356,51	2399,40
356,98	2433,20
357,45	2410,20
357,92	2447,20
358,39	2440,60
358,86	2424,30
359,33	2438,60
359,80	2447,70
360,27	2462,60
360,74	2486,20
361,20	2508,70
361,67	2512,30
362,14	2558,20
362,61	2663,30
363,08	2960,30
363,55	3487,80
364,02	4053,20
364,49	5149,00
364,96	9271,70
365,43	9943,70
365,90	5539,80
366,37	4053,50
366,83	3355,60
367,30	2658,10
367,77	2693,00
368,24	2475,20
368,71	2458,10
369,18	2460,90
369,65	2435,30
370,12	2453,30
370,59	2438,10
371,05	2435,00
371,52	2595,50
371,99	2438,20
372,46	2433,00
372,93	2423,00
373,40	2439,30
373,87	2438,60
374,33	2424,20
374,80	2422,80
375,27	2439,70
375,74	2422,00
376,21	2456,80
376,68	2437,50
377,15	2432,00
377,61	2435,00
378,08	2447,50
378,55	2448,90
379,02	2443,80
379,49	2445,70
379,96	2443,20
380,42	2454,80
380,89	2463,80
381,36	2451,70
381,83	2462,50
382,30	2463,20
382,76	2437,80
383,23	2460,30
383,70	2455,70
384,17	2466,10
384,64	2458,60
385,10	2514,20
385,57	2461,20
386,04	2456,40
386,51	2454,30
386,98	2480,80
387,44	2456,30
387,91	2449,30
388,38	2478,40
388,85	2471,40
389,31	2477,00
389,78	2465,80
390,25	2485,80
390,72	2471,60
391,19	2477,40
391,65	2468,50
392,12	2472,90
392,59	2473,60
393,06	2470,20
393,52	2470,30
393,99	2497,00
394,46	2468,30
394,93	2487,70
395,39	2471,60
395,86	2480,70
396,33	2534,60
396,80	2470,80
397,26	2489,10
397,73	2493,80
398,20	2478,90
398,66	2492,00
399,13	2492,30
399,60	2492,70
400,07	2517,80
400,53	2507,60
401,00	2541,10
401,47	2556,50
401,93	2609,90
402,40	2753,20
402,87	3261,90
403,34	4474,60
403,80	5849,10
404,27	7223,70
404,74	12363,70
405,20	8896,20
405,67	3669,90
406,14	2820,60
406,60	2795,30
407,07	2839,60
407,54	3025,00
408,00	3325,70
408,47	2824,20
408,94	2549,90
409,40	2494,20
409,87	2504,00
410,34	2485,70
410,80	2503,00
411,27	2474,90
411,74	2497,80
412,20	2467,30
412,67	2455,80
413,14	2479,60
413,60	2472,10
414,07	2476,00
414,53	2472,40
415,00	2485,40
415,47	2462,10
415,93	2482,60
416,40	2466,40
416,87	2467,60
417,33	2483,80
417,80	2469,50
418,26	2461,50
418,73	2468,00
419,20	2468,40
419,66	2471,00
420,13	2449,80
420,59	2469,50
421,06	2450,40
421,53	2465,00
421,99	2455,20
422,46	2466,10
422,92	2457,50
423,39	2459,30
423,86	2470,90
424,32	2465,20
424,79	2456,10
425,25	2462,00
425,72	2462,40
426,18	2481,90
426,65	2459,70
427,11	2474,10
427,58	2470,60
428,05	2473,20
428,51	2459,10
428,98	2480,20
429,44	2476,70
429,91	2482,40
430,37	2497,30
430,84	2546,30
431,30	2517,00
431,77	2560,00
432,23	2607,80
432,70	2684,30
433,17	2797,10
433,63	3113,60
434,10	4277,40
434,56	8067,50
435,03	14127,50
435,49	18378,30
435,96	29158,60
436,42	17609,40
436,89	5188,60
437,35	3195,20
437,82	2773,20
438,28	2641,10
438,75	2573,00
439,21	2538,10
439,68	2561,70
440,14	2510,50
440,61	2498,90
441,07	2488,50
441,54	2468,70
442,00	2463,50
442,47	2482,80
442,93	2446,20
443,39	2455,20
443,86	2450,30
444,32	2434,50
444,79	2462,00
445,25	2445,00
445,72	2442,70
446,18	2438,60
446,65	2440,00
447,11	2430,50
447,58	2438,00
448,04	2426,60
448,50	2427,50
448,97	2437,50
449,43	2433,20
449,90	2422,40
450,36	2416,10
450,83	2418,30
451,29	2422,30
451,75	2426,70
452,22	2430,90
452,68	2410,20
453,15	2429,20
453,61	2420,70
454,08	2423,50
454,54	2419,60
455,00	2424,50
455,47	2415,20
455,93	2419,80
456,40	2427,90
456,86	2407,60
457,32	2427,00
457,79	2415,20
458,25	2417,80
458,71	2405,20
459,18	2419,80
459,64	2409,40
460,11	2413,00
460,57	2412,20
461,03	2405,20
461,50	2429,30
461,96	2421,10
462,42	2407,80
462,89	2406,20
463,35	2421,70
463,81	2407,50
464,28	2413,80
464,74	2415,30
465,21	2399,90
465,67	2403,40
466,13	2415,70
466,60	2407,00
467,06	2412,30
467,52	2412,80
467,99	2406,60
468,45	2410,00
468,91	2411,70
469,37	2407,40
469,84	2402,20
470,30	2407,20
470,76	2407,70
471,23	2405,50
471,69	2399,50
472,15	2398,50
472,62	2396,90
473,08	2406,30
473,54	2423,00
474,01	2406,00
474,47	2399,20
474,93	2404,00
475,39	2392,20
475,86	2414,90
476,32	2406,80
476,78	2408,30
477,25	2408,30
477,71	2402,20
478,17	2415,90
478,63	2403,30
479,10	2412,20
479,56	2393,50
480,02	2421,30
480,48	2407,30
480,95	2410,40
481,41	2399,80
481,87	2398,20
482,33	2413,50
482,80	2402,20
483,26	2417,10
483,72	2407,70
484,18	2419,70
484,65	2444,60
485,11	2436,00
485,57	2435,70
486,03	2418,80
486,49	2435,20
486,96	2424,30
487,42	2443,10
487,88	2422,90
488,34	2418,10
488,80	2428,70
489,27	2434,80
489,73	2430,60
490,19	2439,00
490,65	2427,70
491,11	2465,40
491,58	2470,90
492,04	2462,30
492,50	2416,50
492,96	2429,30
493,42	2419,90
493,89	2421,40
494,35	2399,80
494,81	2414,90
495,27	2405,00
495,73	2406,00
496,19	2409,60
496,66	2403,60
497,12	2405,60
497,58	2433,80
498,04	2422,00
498,50	2401,80
498,96	2406,90
499,43	2399,10
499,89	2428,50
500,35	2409,30
500,81	2394,50
501,27	2403,10
501,73	2399,40
502,19	2411,20
502,65	2398,20
503,12	2401,60
503,58	2404,80
504,04	2412,60
504,50	2400,20
504,96	2395,70
505,42	2398,40
505,88	2392,50
506,34	2391,80
506,80	2405,00
507,27	2393,60
507,73	2399,90
508,19	2397,80
508,65	2385,30
509,11	2384,70
509,57	2380,10
510,03	2387,70
510,49	2394,90
510,95	2384,80
511,41	2401,40
511,87	2405,30
512,33	2388,40
512,80	2379,40
513,26	2386,20
513,72	2393,30
514,18	2377,10
514,64	2404,80
515,10	2409,40
515,56	2375,10
516,02	2391,90
516,48	2398,00
516,94	2395,90
517,40	2421,10
517,86	2395,70
518,32	2388,10
518,78	2434,00
519,24	2389,20
519,70	2388,90
520,16	2380,00
520,62	2382,70
521,08	2398,30
521,54	2393,40
522,00	2392,50
522,46	2387,70
522,92	2380,00
523,38	2409,80
523,84	2400,50
524,30	2383,50
524,76	2417,50
525,22	2400,70
525,68	2397,80
526,14	2406,50
526,60	2399,90
527,06	2392,50
527,52	2393,90
527,98	2393,20
528,44	2410,40
528,90	2395,60
529,36	2395,10
529,82	2388,70
530,28	2403,90
530,74	2404,70
531,20	2382,90
531,66	2407,40
532,12	2397,60
532,58	2402,40
533,04	2402,70
533,50	2412,30
533,96	2409,80
534,42	2401,40
534,88	2409,60
535,33	2407,70
535,79	2423,30
536,25	2411,90
536,71	2433,70
537,17	2424,80
537,63	2450,40
538,09	2455,80
538,55	2463,10
539,01	2499,60
539,47	2513,70
539,93	2591,80
540,39	2559,50
540,84	2671,00
541,30	2727,70
541,76	2791,90
542,22	2864,10
542,68	2917,00
543,14	2998,30
543,60	3177,70
544,06	3361,50
544,52	4126,20
544,97	7712,10
545,43	24080,20
545,89	47911,30
546,35	42350,80
546,81	15639,70
547,27	5806,50
547,73	3861,30
548,19	3223,90
548,64	2957,10
549,10	2787,80
549,56	2687,30
550,02	2661,00
550,48	2587,60
550,94	2546,40
551,39	2538,70
551,85	2518,10
552,31	2517,30
552,77	2484,20
553,23	2473,80
553,69	2462,40
554,14	2447,90
554,60	2432,40
555,06	2436,10
555,52	2430,70
555,98	2446,10
556,43	2427,20
556,89	2434,60
557,35	2403,90
557,81	2418,50
558,27	2435,90
558,72	2400,80
559,18	2412,90
559,64	2392,90
560,10	2399,20
560,56	2392,30
561,01	2401,70
561,47	2402,30
561,93	2397,50
562,39	2395,70
562,85	2396,60
563,30	2404,40
563,76	2414,70
564,22	2390,70
564,68	2399,00
565,13	2395,20
565,59	2397,50
566,05	2402,00
566,51	2414,00
566,96	2395,60
567,42	2391,30
567,88	2406,10
568,34	2410,40
568,79	2395,10
569,25	2401,60
569,71	2413,40
570,16	2401,10
570,62	2402,40
571,08	2412,20
571,54	2412,70
571,99	2415,40
572,45	2422,40
572,91	2428,90
573,36	2419,30
573,82	2439,50
574,28	2460,70
574,74	2502,50
575,19	2547,90
575,65	2704,20
576,11	3659,90
576,56	7378,60
577,02	9543,40
577,48	5853,10
577,93	3723,70
578,39	5051,60
578,85	9515,50
579,30	8810,30
579,76	4549,10
580,22	3021,50
580,67	2684,90
581,13	2570,70
581,59	2514,90
582,04	2495,50
582,50	2482,20
582,96	2467,50
583,41	2469,70
583,87	2470,00
584,33	2459,10
584,78	2464,50
585,24	2444,90
585,69	2474,40
586,15	2445,90
586,61	2458,60
587,06	2475,80
587,52	2473,80
587,98	2463,20
588,43	2433,50
588,89	2436,80
589,34	2430,10
589,80	2424,50
590,26	2426,90
590,71	2435,90
591,17	2424,40
591,62	2418,50
592,08	2453,90
592,54	2439,80
592,99	2454,00
593,45	2451,50
593,90	2439,30
594,36	2422,90
594,81	2414,80
595,27	2417,10
595,73	2410,40
596,18	2404,60
596,64	2419,30
597,09	2418,50
597,55	2419,40
598,00	2416,10
598,46	2405,80
598,92	2421,10
599,37	2438,70
599,83	2420,60
600,28	2420,30
600,74	2426,50
601,19	2412,20
601,65	2410,10
602,10	2388,90
602,56	2435,60
603,01	2393,00
603,47	2399,70
603,92	2387,00
604,38	2387,30
604,83	2414,80
605,29	2397,40
605,74	2406,80
606,20	2404,70
606,65	2393,70
607,11	2412,20
607,56	2420,00
608,02	2422,50
608,47	2443,80
608,93	2455,10
609,38	2508,30
609,84	2540,60
610,29	2626,20
610,75	2811,30
611,20	3015,80
611,66	2966,90
612,11	2809,20
612,57	2667,00
613,02	2601,10
613,48	2613,70
613,93	2549,20
614,39	2542,00
614,84	2532,80
615,30	2496,10
615,75	2487,30
616,20	2465,50
616,66	2442,70
617,11	2441,60
617,57	2436,90
618,02	2436,10
618,48	2423,90
618,93	2424,70
619,38	2426,30
619,84	2441,60
620,29	2432,50
620,75	2440,80
621,20	2443,00
621,66	2431,30
622,11	2442,20
622,56	2447,20
623,02	2442,90
623,47	2427,20
623,93	2430,10
624,38	2441,60
624,83	2423,50
625,29	2433,70
625,74	2433,10
626,20	2423,30
626,65	2431,70
627,10	2433,40
627,56	2418,50
628,01	2434,40
628,46	2432,40
628,92	2414,10
629,37	2423,10
629,82	2442,10
630,28	2447,20
630,73	2474,40
631,19	2472,50
631,64	2454,90
632,09	2430,40
632,55	2413,30
633,00	2397,40
633,45	2392,40
633,91	2384,60
634,36	2388,70
634,81	2383,20
635,27	2381,50
635,72	2384,00
636,17	2375,50
636,63	2393,20
637,08	2387,90
637,53	2374,50
637,99	2392,90
638,44	2396,40
638,89	2379,00
639,34	2384,10
639,80	2377,80
640,25	2376,20
640,70	2393,10
641,16	2400,70
641,61	2371,60
642,06	2386,40
642,51	2386,40
642,97	2374,60
643,42	2382,00
643,87	2391,40
644,33	2377,90
644,78	2373,70
645,23	2382,50
645,68	2378,60
646,14	2385,20
646,59	2390,40
647,04	2392,30
647,49	2394,60
647,95	2385,50
648,40	2387,60
648,85	2378,20
649,30	2403,00
649,76	2402,90
650,21	2452,80
650,66	2400,60
651,11	2392,30
651,57	2390,80
652,02	2393,50
652,47	2376,60
652,92	2389,50
653,37	2388,40
653,83	2381,60
654,28	2391,10
654,73	2388,40
655,18	2387,10
655,63	2374,40
656,09	2392,10
656,54	2379,30
656,99	2382,00
657,44	2397,90
657,89	2388,80
658,35	2384,70
658,80	2387,60
659,25	2373,60
659,70	2435,10
660,15	2381,00
660,60	2391,90
661,06	2385,50
661,51	2376,00
661,96	2392,60
662,41	2387,70
662,86	2373,30
663,31	2390,40
663,77	2386,60
664,22	2379,10
664,67	2383,20
665,12	2371,70
665,57	2387,30
666,02	2374,50
666,47	2383,10
666,93	2384,90
667,38	2416,30
667,83	2398,10
668,28	2376,90
668,73	2385,60
669,18	2377,50
669,63	2408,70
670,08	2363,90
670,53	2376,30
670,99	2394,40
671,44	2389,50
671,89	2409,40
672,34	2408,60
672,79	2379,30
673,24	2384,50
673,69	2394,00
674,14	2418,70
674,59	2381,10
675,04	2391,50
675,49	2367,90
675,95	2372,90
676,40	2385,40
676,85	2377,00
677,30	2378,70
677,75	2378,20
678,20	2408,80
678,65	2371,90
679,10	2386,40
679,55	2386,70
680,00	2374,10
680,45	2378,30
680,90	2379,50
681,35	2367,40
681,80	2360,20
682,25	2375,10
682,70	2378,90
683,15	2390,90
683,60	2386,80
684,05	2387,60
684,50	2393,60
684,95	2388,50
685,40	2388,20
685,85	2385,00
686,30	2382,00
686,75	2375,00
687,20	2391,80
687,65	2391,80
688,10	2388,50
688,55	2387,10
689,00	2417,80
689,45	2391,00
689,90	2379,60
690,35	2419,30
690,80	2447,50
691,25	2408,40
691,70	2390,20
692,15	2367,20
692,60	2386,50
693,05	2375,00
693,50	2394,20
693,95	2400,90
694,40	2385,70
694,85	2389,10
695,30	2435,00
695,75	2400,50
696,20	2465,80
696,65	2506,50
697,10	2443,90
697,55	2389,30
698,00	2385,50
698,45	2372,60
698,90	2388,10
699,34	2389,60
699,79	2374,50
700,24	2372,60
700,69	2388,80
701,14	2393,60
701,59	2426,80
702,04	2366,80
702,49	2396,70
702,94	2370,10
703,39	2378,10
703,84	2385,80
704,28	2383,30
704,73	2376,60
705,18	2400,80
705,63	2410,00
706,08	2418,80
706,53	2423,20
706,98	2446,10
707,43	2420,70
707,87	2415,80
708,32	2428,70
708,77	2445,40
709,22	2429,10
709,67	2408,50
710,12	2395,80
710,57	2385,40
711,01	2388,10
711,46	2408,50
711,91	2408,00
712,36	2416,80
712,81	2399,60
713,26	2422,80
713,71	2389,00
714,15	2388,20
714,60	2394,80
715,05	2393,60
715,50	2374,30
715,95	2385,30
716,39	2375,00
716,84	2378,40
717,29	2364,70
717,74	2360,80
718,19	2375,20
718,63	2392,70
719,08	2367,20
719,53	2369,60
719,98	2375,30
720,43	2373,00
720,87	2372,10
721,32	2374,30
721,77	2368,10
722,22	2379,70
722,67	2375,80
723,11	2367,70
723,56	2357,70
724,01	2377,90
724,46	2360,40
724,90	2382,30
725,35	2366,50
725,80	2373,20
726,25	2376,40
726,69	2391,90
727,14	2424,90
727,59	2391,10
728,04	2402,40
728,48	2387,90
728,93	2371,30
729,38	2386,20
729,83	2376,50
730,27	2387,00
730,72	2366,00
731,17	2372,00
731,61	2386,10
732,06	2374,60
732,51	2376,30
732,96	2367,90
733,40	2383,50
733,85	2376,80
734,30	2368,00
734,74	2385,90
735,19	2379,60
735,64	2374,60
736,09	2412,40
736,53	2369,10
736,98	2378,20
737,43	2392,20
737,87	2415,30
738,32	2417,70
738,77	2418,20
739,21	2392,90
739,66	2367,60
740,11	2391,10
740,55	2385,00
741,00	2365,60
741,45	2382,50
741,89	2382,50
742,34	2373,50
742,79	2373,70
743,23	2370,50
743,68	2367,30
744,12	2370,80
744,57	2390,70
745,02	2384,60
745,46	2384,10
745,91	2386,80
746,36	2394,20
746,80	2356,30
747,25	2366,30
747,69	2365,90
748,14	2381,90
748,59	2374,20
749,03	2380,50
749,48	2401,30
749,92	2484,30
750,37	2468,80
750,82	2481,80
751,26	2428,50
751,71	2427,40
752,15	2396,10
752,60	2381,90
753,05	2403,40
753,49	2364,80
753,94	2369,30
754,38	2363,40
754,83	2368,60
755,27	2362,90
755,72	2372,90
756,17	2372,70
756,61	2382,10
757,06	2373,40
757,50	2388,90
757,95	2376,50
758,39	2374,50
758,84	2375,40
759,28	2372,90
759,73	2372,30
760,17	2375,60
760,62	2382,00
761,07	2377,70
761,51	2388,10
761,96	2403,00
762,40	2412,00
762,85	2534,00
763,29	2632,20
763,74	2724,30
764,18	2571,10
764,63	2414,60
765,07	2387,40
765,52	2385,50
765,96	2373,70
766,41	2370,30
766,85	2371,00
767,30	2375,90
767,74	2377,80
768,19	2377,50
768,63	2383,00
769,07	2375,00
769,52	2399,40
769,96	2371,40
770,41	2376,50
770,85	2376,00
771,30	2391,20
771,74	2477,70
772,19	2515,90
772,63	2570,20
773,08	2482,80
773,52	2405,90
773,97	2383,20
774,41	2363,80
774,85	2383,20
775,30	2366,00
775,74	2378,60
776,19	2381,00
776,63	2368,00
777,08	2366,90
777,52	2375,40
777,96	2379,50
778,41	2377,60
778,85	2369,30
779,30	2376,40
779,74	2401,20
780,18	2385,10
780,63	2374,90
781,07	2382,80
781,52	2380,00
781,96	2364,00
782,40	2377,70
782,85	2360,40
783,29	2370,50
783,74	2381,30
784,18	2379,00
784,62	2371,00
785,07	2373,50
785,51	2371,30
785,95	2364,60
786,40	2375,90
786,84	2381,40
787,28	2379,20
787,73	2364,70
788,17	2364,40
788,61	2370,00
789,06	2365,10
789,50	2368,10
789,94	2363,60
790,39	2373,70
790,83	2359,40
791,27	2365,70
791,72	2382,50
792,16	2369,90
792,60	2377,20
793,05	2371,40
793,49	2433,20
793,93	2412,60
794,38	2423,10
794,82	2432,30
795,26	2446,00
795,71	2390,70
796,15	2387,70
796,59	2377,60
797,03	2376,80
797,48	2371,60
797,92	2365,30
798,36	2377,40
798,81	2388,90
799,25	2378,80
799,69	2381,30
800,13	2430,00
800,58	2427,60
801,02	2451,50
801,46	2433,20
801,90	2434,80
802,35	2384,30
802,79	2391,30
803,23	2398,20
803,67	2383,30
804,12	2380,60
804,56	2372,60
805,00	2370,90
805,44	2389,30
805,89	2403,80
806,33	2391,50
806,77	2385,20
807,21	2400,40
807,66	2379,60
808,10	2377,80
808,54	2376,60
808,98	2385,50
809,42	2402,80
809,87	2424,80
810,31	2446,90
810,75	2576,30
811,19	2555,60
811,63	2636,10
812,08	2560,10
812,52	2425,10
812,96	2403,60
813,40	2405,90
813,84	2389,40
814,28	2381,50
814,73	2388,80
815,17	2384,60
815,61	2377,00
816,05	2370,80
816,49	2367,80
816,93	2372,10
817,38	2382,70
817,82	2377,60
818,26	2384,60
818,70	2375,10
819,14	2380,60
819,58	2391,60
820,03	2373,40
820,47	2377,80
820,91	2371,40
821,35	2377,10
821,79	2369,40
822,23	2392,50
822,67	2369,40
823,11	2375,90
823,55	2380,10
824,00	2365,80
824,44	2376,10
824,88	2383,10
825,32	2404,70
825,76	2475,00
826,20	2453,00
826,64	2522,70
827,08	2465,20
827,52	2405,50
827,96	2398,30
828,41	2394,90
828,85	2373,00
829,29	2386,30
829,73	2384,00
830,17	2371,40
830,61	2390,80
831,05	2373,60
831,49	2403,30
831,93	2387,20
832,37	2382,80
832,81	2358,50
833,25	2375,60
833,69	2375,30
834,13	2393,20
834,57	2380,10
835,01	2375,70
835,45	2366,40
835,89	2386,20
836,33	2371,70
836,77	2381,10
837,22	2372,70
837,66	2386,50
838,10	2370,80
838,54	2372,50
838,98	2381,80
839,42	2378,70
839,86	2432,80
840,30	2453,10
840,74	2435,50
841,18	2495,80
841,62	2452,60
842,06	2438,80
842,50	2447,20
842,94	2460,90
843,37	2415,20
843,81	2386,60
844,25	2386,10
844,69	2379,70
845,13	2370,80
845,57	2384,10
846,01	2370,90
846,45	2388,00
846,89	2368,90
847,33	2368,20
847,77	2378,30
848,21	2372,50
848,65	2369,60
849,09	2374,20
849,53	2379,20
849,97	2391,50
850,41	2382,00
850,85	2377,60
851,29	2401,00
851,73	2383,70
852,16	2407,20
852,60	2427,10
853,04	2383,30
853,48	2375,40
853,92	2382,00
854,36	2359,20
854,80	2385,90
855,24	2365,30
855,68	2368,00
856,12	2383,90
856,55	2394,70
856,99	2367,60
857,43	2374,70
857,87	2372,00
858,31	2366,30
858,75	2390,60
859,19	2358,10
859,63	2364,40
860,06	2366,30
860,50	2367,70
860,94	2374,70
861,38	2382,80
861,82	2367,00
862,26	2368,70
862,70	2386,00
863,13	2366,90
863,57	2368,40
864,01	2380,90
864,45	2366,80
864,89	2374,80
865,33	2374,00
865,76	2367,60
866,20	2374,70
866,64	2358,70
867,08	2386,00
867,52	2367,20
867,96	2381,20
868,39	2372,00
868,83	2370,80
869,27	2382,00
869,71	2370,50
870,15	2392,90
870,58	2400,60
871,02	2365,10
871,46	2368,80
871,90	2375,80
872,34	2367,80
872,77	2375,50
873,21	2376,80
873,65	2364,10
874,09	2383,10
874,52	2385,80
874,96	2373,90
875,40	2362,30
875,84	2385,50
876,27	2359,70
876,71	2378,40
877,15	2370,50
877,59	2374,10
878,02	2374,10
878,46	2370,80
878,90	2377,80
879,34	2375,30
879,77	2393,20
880,21	2367,00
880,65	2363,60
881,09	2368,60
881,52	2373,00
881,96	2380,50
882,40	2372,70
882,83	2371,20
883,27	2367,70
883,71	2372,20
884,14	2366,70
884,58	2380,10
885,02	2374,40
885,46	2378,80
885,89	2382,80
886,33	2367,40
886,77	2367,30
887,20	2392,20
887,64	2361,70
888,08	2364,20
888,51	2371,90
888,95	2365,00
889,39	2415,00
889,82	2365,90
890,26	2382,20
890,70	2367,10
891,13	2375,60
891,57	2378,10
892,01	2359,90
892,44	2370,30
892,88	2374,10
893,31	2363,00
893,75	2367,70
894,19	2377,20
894,62	2367,80
895,06	2370,30
895,50	2366,00
895,93	2362,30
896,37	2373,60
896,80	2379,50
897,24	2365,60
897,68	2364,80
898,11	2368,10
898,55	2379,90
898,98	2389,90
899,42	2364,20
899,86	2362,70
900,29	2370,40
900,73	2383,60
901,16	2380,90
901,60	2371,90
902,04	2397,00
902,47	2397,20
902,91	2371,00
903,34	2371,50
903,78	2395,50
904,21	2372,50
904,65	2379,00
905,09	2368,40
905,52	2372,20
905,96	2364,20
906,39	2386,00
906,83	2377,10
907,26	2385,60
907,70	2381,50
908,13	2377,30
908,57	2387,80
909,00	2394,10
909,44	2380,30
909,87	2368,20
910,31	2396,50
910,74	2419,80
911,18	2492,40
911,62	2488,40
912,05	2487,20
912,49	2606,70
912,92	2528,10
913,36	2440,80
913,79	2407,50
914,22	2392,70
914,66	2372,50
915,09	2371,80
915,53	2375,80
915,96	2371,10
916,40	2383,50
916,83	2369,20
917,27	2393,20
917,70	2373,70
918,14	2386,50
918,57	2368,30
919,01	2374,70
919,44	2376,50
919,88	2380,20
920,31	2385,00
920,75	2383,60
921,18	2408,60
921,61	2405,60
922,05	2392,60
922,48	2408,50
922,92	2399,80
923,35	2392,40
923,79	2399,10
924,22	2382,70
924,65	2369,00
925,09	2384,90
925,52	2365,70
925,96	2386,20
926,39	2397,90
926,82	2368,70
927,26	2381,70
927,69	2365,40
928,13	2396,40
928,56	2375,70
928,99	2367,50
929,43	2389,50
929,86	2370,30
930,30	2380,90
930,73	2379,70
931,16	2365,10
931,60	2376,40
932,03	2356,70
932,46	2391,70
932,90	2385,00
933,33	2402,10
933,76	2370,60
934,20	2388,80
934,63	2385,80
935,07	2387,30
935,50	2376,20
935,93	2365,20
936,37	2371,10
936,80	2367,90
937,23	2375,90
937,67	2363,60
938,10	2380,00
938,53	2364,80
938,96	2367,10
939,40	2372,50
939,83	2362,00
940,26	2371,50
940,70	2386,00
941,13	2398,00
941,56	2365,70
942,00	2387,70
942,43	2367,10
942,86	2369,10
943,29	2379,90
943,73	2364,50
944,16	2359,60
944,59	2380,80
945,03	2376,40
945,46	2379,20
945,89	2372,10
946,32	2370,10
946,76	2373,40
947,19	2389,10
947,62	2372,50
948,05	2378,10
948,49	2381,60
948,92	2364,40
949,35	2364,90
949,78	2363,40
950,22	2404,90
950,65	2387,00
951,08	2370,50
951,51	2369,00
951,95	2379,60
952,38	2362,10
952,81	2382,00
953,24	2369,60
953,67	2393,00
954,11	2362,70
954,54	2368,40
954,97	2369,70
955,40	2369,50
955,83	2369,40
956,27	2383,30
956,70	2360,60
957,13	2376,50
957,56	2407,10
957,99	2364,30
958,43	2376,10
958,86	2377,10
959,29	2368,60
959,72	2372,90
960,15	2371,30
960,58	2355,70
961,02	2371,50
961,45	2383,20
961,88	2379,40
962,31	2380,50
962,74	2381,60
963,17	2369,10
963,61	2385,90
964,04	2378,00
964,47	2397,50
964,90	2396,50
965,33	2392,80
965,76	2425,60
966,19	2410,10
966,62	2390,20
967,06	2390,60
967,49	2373,90
967,92	2370,50
968,35	2387,10
968,78	2428,10
969,21	2382,60
969,64	2378,50
970,07	2381,80
970,50	2365,50
970,93	2367,40
971,37	2378,20
971,80	2366,80
972,23	2374,20
972,66	2364,90
973,09	2365,60
973,52	2369,90
973,95	2380,50
974,38	2369,20
974,81	2383,40
975,24	2376,00
975,67	2367,80
976,10	2368,60
976,53	2365,90
976,96	2375,20
977,39	2363,80
977,82	2381,00
978,26	2376,80
978,69	2372,60
979,12	2374,10
979,55	2372,90
979,98	2380,80
980,41	2379,40
980,84	2368,40
981,27	2375,90
981,70	2383,40
982,13	2372,90
982,56	2370,50
982,99	2372,20
983,42	2370,80
983,85	2361,60
984,28	2383,30
984,71	2380,90
985,14	2366,00
985,57	2358,30
986,00	2372,50
986,43	2380,20
986,86	2373,10
987,29	2365,70
987,72	2373,50
988,15	2373,70
988,57	2375,40
989,00	2370,50
989,43	2372,80
989,86	2370,80
990,29	2370,70
990,72	2380,00
991,15	2375,10
991,58	2380,00
992,01	2390,40
992,44	2372,40
992,87	2375,30
993,30	2373,70
993,73	2366,80
994,16	2370,70
994,59	2380,50
995,02	2383,80
995,44	2379,00
995,87	2378,50
996,30	2369,10
996,73	2369,10
997,16	2369,00
997,59	2397,50
998,02	2393,00
998,45	2381,60
998,88	2386,90
999,31	2377,80
999,73	2401,50
1000,16	2388,30
1000,59	2394,70
1001,02	2410,30
1001,45	2386,20
1001,88	2399,40
1002,31	2403,00
1002,74	2397,50
1003,16	2404,60
1003,59	2414,00
1004,02	2417,60
1004,45	2403,60
1004,88	2422,90
1005,31	2416,10
1005,73	2442,50
1006,16	2432,50
1006,59	2428,10
1007,02	2452,00
1007,45	2457,50
1007,88	2460,70
1008,30	2468,60
1008,73	2486,90
1009,16	2498,10
1009,59	2563,20
1010,02	2560,50
1010,44	2564,90
1010,87	2596,10
1011,30	2640,50
1011,73	2737,90
1012,16	2975,40
1012,58	3459,80
1013,01	3213,20
1013,44	3261,00
1013,87	3912,40
1014,30	3881,00
1014,72	3287,40
1015,15	2929,40
1015,58	2756,90
1016,01	2655,00
1016,43	2605,60
1016,86	2568,60
1017,29	2553,40
1017,72	2527,70
1018,14	2717,80
1018,57	2485,90
1019,00	2470,80
1019,43	2501,10
1019,85	2474,90
1020,28	2453,60
1020,71	2439,40
1021,14	2441,20
1021,56	2434,80
1021,99	2426,20
1022,42	2427,60
1022,84	2412,10
1023,27	2453,50
1023,70	2419,80
1024,13	2414,50
1024,55	2406,10
1024,98	2402,70
1025,41	2401,40
1025,83	2409,50
1026,26	2381,90
1026,69	2378,80
1027,11	2419,90
1027,54	2393,40
1027,97	2391,90
1028,39	2388,40
1028,82	2386,80
1029,25	2383,10
1029,67	2405,50
1030,10	2379,20
1030,53	2385,20
1030,95	2387,30
1031,38	2395,20
1031,81	2369,40
1032,23	2381,50
1032,66	2386,40
1033,09	2375,10
1033,51	2391,90
1033,94	2367,20
1034,37	2367,20
1034,79	2382,20
1035,22	2381,70
1035,64	2375,60
1036,07	2392,30
1036,50	2365,50
1036,92	2371,10
1037,35	2375,20
1037,77	2359,20
1038,20	2379,20
1038,63	2383,80
1039,05	2382,50
1039,48	2384,50
1039,90	2393,00
1040,33	2373,10
1040,76	2376,20
1041,18	2380,50
1041,61	2372,50
1042,03	2392,80
1042,46	2384,40
1042,88	2376,20
1043,31	2390,40
1043,74	2376,30
1044,16	2386,40
1044,59	2359,80
1045,01	2373,20
1045,44	2369,70
1045,86	2368,50
1046,29	2378,20
1046,71	2386,00
1047,14	2369,50
1047,56	2380,90
1047,99	2390,00
1048,42	2364,60
1048,84	2385,70
1049,27	2384,40
1049,69	2385,40
1050,12	2371,60
1050,54	2374,40
1050,97	2377,00
1051,39	2383,80
1051,82	2391,00
1052,24	2391,60
1052,67	2377,80
1053,09	2376,20
1053,52	2357,30
1053,94	2377,10
1054,37	2361,30
1054,79	2374,70
1055,22	2368,10
1055,64	2380,20
1056,06	2380,60
1056,49	2400,10
1056,91	2385,90
1057,34	2387,70
1057,76	2375,20
1058,19	2421,30
1058,61	2370,50
1059,04	2383,20
1059,46	2382,50
1059,89	2376,50
1060,31	2369,30
1060,73	2364,90
1061,16	2379,20
1061,58	2376,00
1062,01	2373,90
1062,43	2378,80
1062,86	2393,60
1063,28	2376,60
1063,70	2370,60
1064,13	2364,20
1064,55	2386,90
1064,98	2386,40
1065,40	2369,40
1065,82	2362,00
1066,25	2366,70
1066,67	2387,30
1067,10	2378,10
1067,52	2373,70
1067,94	2378,00
1068,37	2376,60
1068,79	2395,00
1069,21	2381,50
1069,64	2367,50
1070,06	2364,60
1070,48	2384,90
1070,91	2387,40
1071,33	2383,60
1071,76	2373,80
1072,18	2386,50
1072,60	2368,30
1073,03	2368,30
1073,45	2366,90
1073,87	2383,20
1074,30	2369,80
1074,72	2360,00
1075,14	2368,10
1075,57	2368,00
1075,99	2374,10
1076,41	2366,70
1076,84	2365,60
1077,26	2372,40
1077,68	2380,00
1078,10	2368,80
1078,53	2380,20
1078,95	2382,30
1079,37	2361,60
1079,80	2377,30
1080,22	2373,10
1080,64	2372,90
1081,06	2381,90
1081,49	2374,20
1081,91	2375,70
1082,33	2376,30
1082,76	2367,50
1083,18	2370,40
1083,60	2377,40
1084,02	2371,60
1084,45	2382,30
1084,87	2376,30
1085,29	2371,70
1085,71	2385,60
1086,14	2364,40
1086,56	2370,40
1086,98	2377,70
1087,40	2363,80
1087,83	2381,60
1088,25	2779,90
1088,67	2379,60
1089,09	2370,30
1089,51	2369,40
1089,94	2373,30
1090,36	2391,20
1090,78	2372,40
1091,20	2369,70
1091,62	2376,70
1092,05	2375,10
1092,47	2371,60
1092,89	2371,40
1093,31	2368,70
1093,73	2373,10
1094,16	2370,80
1094,58	2366,80
1095,00	2370,90
1095,42	2376,10
1095,84	2369,20
1096,26	2372,80
1096,69	2377,50
1097,11	2362,20
1097,53	2373,40
1097,95	2367,50
1098,37	2379,10
1098,79	2381,70
1099,22	2385,80
1099,64	2369,30
1100,06	2375,40
1100,48	2371,80
1100,90	2367,20
1101,32	2365,90
1101,74	2373,60
1102,16	2359,70
1102,59	2369,10
1103,01	2364,40
1103,43	2372,00
1103,85	2379,20
1104,27	2463,80
1104,69	2383,20
1105,11	2354,90
1105,53	2377,10
1105,95	2373,80
1106,38	2361,80
1106,80	2375,60
1107,22	2357,10
1107,64	2359,00
1108,06	2384,10
1108,48	2357,40
1108,90	2371,50
1109,32	2370,80
1109,74	2375,40
1110,16	2356,40
1110,58	2363,00
1111,00	2359,60
1111,42	2365,10
1111,84	2361,50
1112,26	2358,40
1112,68	2355,30
1113,11	2369,20
1113,53	2362,10
1113,95	2360,20
1114,37	2371,40
1114,79	2375,10
1115,21	2361,70
1115,63	2368,00
1116,05	2365,20
1116,47	2373,70
1116,89	2372,40
1117,31	2365,90
1117,73	2356,70
1118,15	2190,70
1118,57	2196,00
1118,99	2195,10
1119,41	2197,10
>>>>>End Processed Spectral Data<<<<<
