SpectraSuite Data File
++++++++++++++++++++++++++++++++++++
Date: Tue Feb 12 11:57:08 EET 2013
User: OO Maya
Dark Spectrum Present: No
Reference Spectrum Present: No
Number of Sampled Component Spectra: 1
Spectrometers: MAYP11278
Integration Time (usec): 300000 (MAYP11278)
Spectra Averaged: 10 (MAYP11278)
Boxcar Smoothing: 0 (MAYP11278)
Correct for Electrical Dark: No (MAYP11278)
Strobe/Lamp Enabled: No (MAYP11278)
Correct for Detector Non-linearity: No (MAYP11278)
Correct for Stray Light: No (MAYP11278)
Number of Pixels in Processed Spectrum: 2068
>>>>>Begin Processed Spectral Data<<<<<
188,05	2289,20
188,53	2213,80
189,01	2182,00
189,49	2183,10
189,96	2510,40
190,44	2543,70
190,92	2535,90
191,40	2544,20
191,88	2573,70
192,36	2544,50
192,83	2527,90
193,31	2509,10
193,79	2538,40
194,27	2533,20
194,75	2549,20
195,23	2536,50
195,70	2562,60
196,18	2528,90
196,66	2540,10
197,14	2607,80
197,62	2543,70
198,09	2523,90
198,57	2535,00
199,05	2533,20
199,53	2555,80
200,01	2561,00
200,48	2530,90
200,96	2540,00
201,44	2559,40
201,92	2552,40
202,39	2563,30
202,87	2523,40
203,35	2555,40
203,83	2523,50
204,31	2562,80
204,78	2576,40
205,26	2533,20
205,74	2529,50
206,22	2581,90
206,69	2542,90
207,17	2559,50
207,65	2613,80
208,13	2551,70
208,60	2573,20
209,08	2540,90
209,56	2570,30
210,04	2564,80
210,51	2545,50
210,99	2544,20
211,47	2565,20
211,94	2549,50
212,42	2534,30
212,90	2598,70
213,38	2568,30
213,85	2539,30
214,33	2604,90
214,81	2570,70
215,29	2593,50
215,76	2565,60
216,24	2576,10
216,72	2573,50
217,19	2573,30
217,67	2542,70
218,15	2546,60
218,62	2578,80
219,10	2531,40
219,58	2540,00
220,05	2547,00
220,53	2551,60
221,01	2590,70
221,49	2546,80
221,96	2580,60
222,44	2552,10
222,92	2584,70
223,39	2554,50
223,87	2581,00
224,35	2559,70
224,82	2545,30
225,30	2546,20
225,78	2564,70
226,25	2545,10
226,73	2567,40
227,21	2581,10
227,68	2569,80
228,16	2573,60
228,63	2583,40
229,11	2584,60
229,59	2559,90
230,06	2559,20
230,54	2555,70
231,02	2584,20
231,49	2593,40
231,97	2569,50
232,45	2570,50
232,92	2555,00
233,40	2577,60
233,87	2572,70
234,35	2660,40
234,83	2571,60
235,30	2558,50
235,78	2569,20
236,25	2554,00
236,73	2595,10
237,21	2633,20
237,68	2571,00
238,16	2584,80
238,63	2595,60
239,11	2593,20
239,59	2590,70
240,06	2569,10
240,54	2606,40
241,01	2629,00
241,49	2606,20
241,96	2605,50
242,44	2637,90
242,92	2640,60
243,39	2595,50
243,87	2613,80
244,34	2653,10
244,82	2684,20
245,29	2670,50
245,77	2719,20
246,24	2747,30
246,72	2730,30
247,20	2788,40
247,67	2833,60
248,15	2916,60
248,62	2957,80
249,10	2956,50
249,57	3072,70
250,05	3193,30
250,52	3373,30
251,00	3857,70
251,47	4715,20
251,95	5948,20
252,42	12065,30
252,90	31291,10
253,37	46671,30
253,85	56413,80
254,32	21165,20
254,80	5497,00
255,27	3530,20
255,75	3177,40
256,22	3002,90
256,70	2938,40
257,17	2884,20
257,65	2853,40
258,12	2863,40
258,60	2746,70
259,07	2718,20
259,55	2709,30
260,02	2711,50
260,50	2722,10
260,97	2662,50
261,45	2637,90
261,92	2680,50
262,40	2623,40
262,87	2649,20
263,35	2627,00
263,82	2598,50
264,30	2652,60
264,77	2696,10
265,25	2686,80
265,72	2661,60
266,19	2631,90
266,67	2619,70
267,14	2585,40
267,62	2585,90
268,09	2590,80
268,57	2606,60
269,04	2552,10
269,51	2567,30
269,99	2582,10
270,46	2598,90
270,94	2615,40
271,41	2581,30
271,89	2584,10
272,36	2554,30
272,83	2563,40
273,31	2545,40
273,78	2588,10
274,26	2682,50
274,73	2620,30
275,20	2626,70
275,68	2592,20
276,15	2577,00
276,63	2598,00
277,10	2595,10
277,57	2553,60
278,05	2578,00
278,52	2562,90
279,00	2690,70
279,47	2572,10
279,94	2581,90
280,42	2708,00
280,89	2627,50
281,36	2679,50
281,84	2585,70
282,31	2642,30
282,78	2599,20
283,26	2585,60
283,73	2600,80
284,21	2565,10
284,68	2559,30
285,15	2597,60
285,63	2576,80
286,10	2585,60
286,57	2591,10
287,05	2551,90
287,52	2591,10
287,99	2609,40
288,47	2595,50
288,94	2662,80
289,41	2638,70
289,89	2662,90
290,36	2572,20
290,83	2586,50
291,30	2574,90
291,78	2598,10
292,25	2642,60
292,72	2581,70
293,20	2616,40
293,67	2575,60
294,14	2613,10
294,62	2622,20
295,09	2616,80
295,56	2761,70
296,03	3383,20
296,51	4310,30
296,98	4507,10
297,45	3133,10
297,93	2664,70
298,40	2600,10
298,87	2579,10
299,34	2619,10
299,82	2586,50
300,29	2598,00
300,76	2572,80
301,23	2652,80
301,71	2778,30
302,18	2888,60
302,65	2759,10
303,12	2642,50
303,60	2609,40
304,07	2558,60
304,54	2561,60
305,01	2569,50
305,49	2582,80
305,96	2595,00
306,43	2597,10
306,90	2599,90
307,38	2582,80
307,85	2582,90
308,32	2610,00
308,79	2598,60
309,27	2641,30
309,74	2666,00
310,21	2706,80
310,68	2791,50
311,15	2912,90
311,63	3272,30
312,10	4898,60
312,57	7651,60
313,04	8880,00
313,51	6800,40
313,99	3541,90
314,46	2751,90
314,93	2620,90
315,40	2587,90
315,87	2611,00
316,34	2608,60
316,82	2591,70
317,29	2605,10
317,76	2586,90
318,23	2653,40
318,70	2581,80
319,17	2580,30
319,65	2550,50
320,12	2594,90
320,59	2618,50
321,06	2593,40
321,53	2573,30
322,00	2537,90
322,48	2551,50
322,95	2623,40
323,42	2568,90
323,89	2631,50
324,36	2547,60
324,83	2577,80
325,30	2568,90
325,78	2559,70
326,25	2567,30
326,72	2561,70
327,19	2585,10
327,66	2581,30
328,13	2587,00
328,60	2579,90
329,07	2566,20
329,54	2561,70
330,02	2565,30
330,49	2552,30
330,96	2593,40
331,43	2583,70
331,90	2630,20
332,37	2568,10
332,84	2635,90
333,31	2608,30
333,78	2661,40
334,25	2774,00
334,72	2737,00
335,20	2651,10
335,67	2676,80
336,14	2544,70
336,61	2572,60
337,08	2566,30
337,55	2579,70
338,02	2555,50
338,49	2560,00
338,96	2608,70
339,43	2597,60
339,90	2541,10
340,37	2551,70
340,84	2546,70
341,31	2584,80
341,78	2594,60
342,25	2551,50
342,72	2575,50
343,19	2592,20
343,67	2578,70
344,14	2557,90
344,61	2572,60
345,08	2560,60
345,55	2569,00
346,02	2585,40
346,49	2559,80
346,96	2551,30
347,43	2606,50
347,90	2552,40
348,37	2598,10
348,84	2581,40
349,31	2545,30
349,78	2575,90
350,25	2586,30
350,72	2575,20
351,19	2557,30
351,66	2579,70
352,13	2615,40
352,60	2583,40
353,07	2569,30
353,54	2572,20
354,01	2591,80
354,48	2594,90
354,94	2603,30
355,41	2584,70
355,88	2623,70
356,35	2567,80
356,82	2621,10
357,29	2578,60
357,76	2661,30
358,23	2626,00
358,70	2588,20
359,17	2602,20
359,64	2626,50
360,11	2637,40
360,58	2671,90
361,05	2704,80
361,52	2686,40
361,99	2731,80
362,46	2853,50
362,93	3189,80
363,39	3694,60
363,86	4192,30
364,33	5028,20
364,80	8855,00
365,27	10679,40
365,74	6373,00
366,21	4318,30
366,68	3683,30
367,15	2903,70
367,62	2706,30
368,09	2627,50
368,55	2617,50
369,02	2645,90
369,49	2596,80
369,96	2643,70
370,43	2618,50
370,90	2607,40
371,37	2610,80
371,84	2633,00
372,31	2592,30
372,77	2581,30
373,24	2620,10
373,71	2611,10
374,18	2594,60
374,65	2600,00
375,12	2631,10
375,59	2581,70
376,05	2658,70
376,52	2614,50
376,99	2595,40
377,46	2598,40
377,93	2633,10
378,40	2627,40
378,86	2625,40
379,33	2634,80
379,80	2622,80
380,27	2646,70
380,74	2665,40
381,21	2641,70
381,67	2662,80
382,14	2667,10
382,61	2607,00
383,08	2645,60
383,55	2638,00
384,02	2669,80
384,48	2642,60
384,95	2781,50
385,42	2649,20
385,89	2638,60
386,36	2643,80
386,82	2690,00
387,29	2627,10
387,76	2621,30
388,23	2667,40
388,69	2661,00
389,16	2684,20
389,63	2640,00
390,10	2668,60
390,57	2665,10
391,03	2670,00
391,50	2664,20
391,97	2662,50
392,44	2661,00
392,90	2648,20
393,37	2645,70
393,84	2720,10
394,31	2648,70
394,77	2694,80
395,24	2631,90
395,71	2681,50
396,18	2787,50
396,64	2638,90
397,11	2680,40
397,58	2690,00
398,05	2643,20
398,51	2663,30
398,98	2668,30
399,45	2658,80
399,92	2713,30
400,38	2670,10
400,85	2706,70
401,32	2725,60
401,78	2795,30
402,25	2931,20
402,72	3481,60
403,18	4652,10
403,65	5760,20
404,12	6646,30
404,59	11710,20
405,05	10218,20
405,52	4324,20
405,99	3032,30
406,45	2976,90
406,92	2986,30
407,39	3128,40
407,85	3425,90
408,32	3074,40
408,79	2758,30
409,25	2656,60
409,72	2700,30
410,19	2645,80
410,65	2695,50
411,12	2646,70
411,59	2684,70
412,05	2712,90
412,52	2616,90
412,99	2662,60
413,45	2634,60
413,92	2655,10
414,39	2665,20
414,85	2687,90
415,32	2638,80
415,78	2693,00
416,25	2649,80
416,72	2653,60
417,18	2693,50
417,65	2655,30
418,12	2644,70
418,58	2651,90
419,05	2644,30
419,51	2656,00
419,98	2618,60
420,45	2662,30
420,91	2609,80
421,38	2646,80
421,84	2626,20
422,31	2648,30
422,78	2620,70
423,24	2631,40
423,71	2653,90
424,17	2655,00
424,64	2628,80
425,11	2654,10
425,57	2640,30
426,04	2674,70
426,50	2631,70
426,97	2677,50
427,43	2655,80
427,90	2668,60
428,37	2621,10
428,83	2671,70
429,30	2658,40
429,76	2657,80
430,23	2673,60
430,69	2771,70
431,16	2667,70
431,62	2721,10
432,09	2799,90
432,55	2849,60
433,02	2951,30
433,48	3278,90
433,95	4600,40
434,42	8509,40
434,88	13794,10
435,35	16329,40
435,81	28248,30
436,28	21362,80
436,74	6299,80
437,21	3492,60
437,67	2957,00
438,14	2807,30
438,60	2724,60
439,07	2705,30
439,53	2791,50
440,00	2676,90
440,46	2671,30
440,93	2671,60
441,39	2621,40
441,86	2632,50
442,32	2696,60
442,79	2607,30
443,25	2625,40
443,72	2629,90
444,18	2593,20
444,64	2660,90
445,11	2631,50
445,57	2615,50
446,04	2620,80
446,50	2624,20
446,97	2603,20
447,43	2615,30
447,90	2589,20
448,36	2586,20
448,83	2622,70
449,29	2613,80
449,75	2595,10
450,22	2584,20
450,68	2583,30
451,15	2595,00
451,61	2599,40
452,08	2616,70
452,54	2579,00
453,00	2628,60
453,47	2598,80
453,93	2593,60
454,40	2599,60
454,86	2613,60
455,32	2589,70
455,79	2595,80
456,25	2619,30
456,72	2581,30
457,18	2633,40
457,64	2588,70
458,11	2590,20
458,57	2569,00
459,04	2590,60
459,50	2599,30
459,96	2590,50
460,43	2587,90
460,89	2566,00
461,36	2630,50
461,82	2608,40
462,28	2572,70
462,75	2563,40
463,21	2619,40
463,67	2581,00
464,14	2592,80
464,60	2597,30
465,06	2568,70
465,53	2576,40
465,99	2611,80
466,45	2588,50
466,92	2602,70
467,38	2602,00
467,84	2579,80
468,31	2589,10
468,77	2596,20
469,23	2585,90
469,70	2564,70
470,16	2595,60
470,62	2587,10
471,09	2581,80
471,55	2573,10
472,01	2565,00
472,48	2568,20
472,94	2577,40
473,40	2620,30
473,87	2579,80
474,33	2571,70
474,79	2570,60
475,25	2562,40
475,72	2595,20
476,18	2581,30
476,64	2593,70
477,11	2576,70
477,57	2585,10
478,03	2619,80
478,49	2589,40
478,96	2614,10
479,42	2552,10
479,88	2624,20
480,35	2586,90
480,81	2581,40
481,27	2561,10
481,73	2574,40
482,20	2585,40
482,66	2560,40
483,12	2579,20
483,58	2555,40
484,05	2588,60
484,51	2628,10
484,97	2607,60
485,43	2594,50
485,89	2561,90
486,36	2593,40
486,82	2559,60
487,28	2608,10
487,74	2575,10
488,21	2573,30
488,67	2581,00
489,13	2602,70
489,59	2596,60
490,05	2625,70
490,52	2583,90
490,98	2636,40
491,44	2613,80
491,90	2614,70
492,36	2568,20
492,83	2616,70
493,29	2595,10
493,75	2593,00
494,21	2568,90
494,67	2572,90
495,14	2573,10
495,60	2557,10
496,06	2576,60
496,52	2578,30
496,98	2576,20
497,44	2633,60
497,91	2609,70
498,37	2570,80
498,83	2592,80
499,29	2568,50
499,75	2649,90
500,21	2576,20
500,67	2562,30
501,14	2581,50
501,60	2569,90
502,06	2593,70
502,52	2576,30
502,98	2577,80
503,44	2583,60
503,90	2594,80
504,37	2570,80
504,83	2583,00
505,29	2576,20
505,75	2548,80
506,21	2569,60
506,67	2597,10
507,13	2567,70
507,59	2579,80
508,05	2576,20
508,51	2555,20
508,98	2549,10
509,44	2536,50
509,90	2560,60
510,36	2574,40
510,82	2557,30
511,28	2603,20
511,74	2600,10
512,20	2544,30
512,66	2530,20
513,12	2550,50
513,58	2582,60
514,04	2532,50
514,51	2600,40
514,97	2620,40
515,43	2532,60
515,89	2573,60
516,35	2599,00
516,81	2594,10
517,27	2645,60
517,73	2578,80
518,19	2570,80
518,65	2668,70
519,11	2565,10
519,57	2552,10
520,03	2545,80
520,49	2548,70
520,95	2576,40
521,41	2583,50
521,87	2591,10
522,33	2565,90
522,79	2546,60
523,25	2614,60
523,71	2591,60
524,17	2558,00
524,63	2603,70
525,09	2581,60
525,55	2584,10
526,01	2597,80
526,47	2574,80
526,93	2569,40
527,39	2575,80
527,85	2560,30
528,31	2585,80
528,77	2589,20
529,23	2563,10
529,69	2545,20
530,15	2585,70
530,61	2586,30
531,07	2540,40
531,53	2604,40
531,99	2573,10
532,45	2572,90
532,91	2572,30
533,37	2586,40
533,83	2573,20
534,29	2564,90
534,75	2578,40
535,21	2575,80
535,67	2597,30
536,12	2577,70
536,58	2604,90
537,04	2571,40
537,50	2613,10
537,96	2602,70
538,42	2613,50
538,88	2670,60
539,34	2651,40
539,80	2803,00
540,26	2633,50
540,72	2753,60
541,18	2767,90
541,63	2799,70
542,09	2905,30
542,55	2977,50
543,01	3043,10
543,47	3259,70
543,93	3377,70
544,39	4200,00
544,85	7978,90
545,31	23483,20
545,76	41290,90
546,22	44636,40
546,68	18768,10
547,14	6149,00
547,60	3924,40
548,06	3276,10
548,52	3012,10
548,98	2879,20
549,43	2779,00
549,89	2821,30
550,35	2713,20
550,81	2654,80
551,27	2685,50
551,73	2658,00
552,19	2707,20
552,64	2653,60
553,10	2617,20
553,56	2630,70
554,02	2611,30
554,48	2587,00
554,93	2612,90
555,39	2599,00
555,85	2639,80
556,31	2598,20
556,77	2628,50
557,23	2553,70
557,68	2596,80
558,14	2639,00
558,60	2574,70
559,06	2572,40
559,52	2558,80
559,97	2566,50
560,43	2566,30
560,89	2585,10
561,35	2578,00
561,81	2575,20
562,26	2575,00
562,72	2562,00
563,18	2586,90
563,64	2603,90
564,09	2557,80
564,55	2585,80
565,01	2571,90
565,47	2573,00
565,92	2587,50
566,38	2614,10
566,84	2571,30
567,30	2565,60
567,75	2585,70
568,21	2604,80
568,67	2579,80
569,13	2580,00
569,58	2608,10
570,04	2582,30
570,50	2585,30
570,96	2600,20
571,41	2604,10
571,87	2589,00
572,33	2606,20
572,78	2612,10
573,24	2589,40
573,70	2611,40
574,16	2639,20
574,61	2680,40
575,07	2717,60
575,53	2832,50
575,98	3745,60
576,44	6698,80
576,90	8833,80
577,36	6418,60
577,81	3885,50
578,27	4975,90
578,73	8385,80
579,18	8881,30
579,64	4973,80
580,10	3183,70
580,55	2837,70
581,01	2722,80
581,47	2678,10
581,92	2659,30
582,38	2641,50
582,84	2602,70
583,29	2626,60
583,75	2633,80
584,21	2621,80
584,66	2630,60
585,12	2604,30
585,57	2692,10
586,03	2604,60
586,49	2604,90
586,94	2625,30
587,40	2627,70
587,86	2649,20
588,31	2587,10
588,77	2610,00
589,22	2594,40
589,68	2580,10
590,14	2605,90
590,59	2607,20
591,05	2577,80
591,51	2568,00
591,96	2636,50
592,42	2595,10
592,87	2609,20
593,33	2597,40
593,78	2620,30
594,24	2584,50
594,70	2586,40
595,15	2621,00
595,61	2582,40
596,06	2550,00
596,52	2623,00
596,98	2608,70
597,43	2611,60
597,89	2592,30
598,34	2555,10
598,80	2590,30
599,25	2629,10
599,71	2572,60
600,16	2605,00
600,62	2616,10
601,08	2595,50
601,53	2596,20
601,99	2553,70
602,44	2654,30
602,90	2569,50
603,35	2580,10
603,81	2549,40
604,26	2549,10
604,72	2589,20
605,17	2566,20
605,63	2594,80
606,08	2588,50
606,54	2557,70
606,99	2582,90
607,45	2582,00
607,90	2592,40
608,36	2614,40
608,81	2601,70
609,27	2690,60
609,72	2664,00
610,18	2684,50
610,63	2769,40
611,09	2885,90
611,54	2856,90
612,00	2830,90
612,45	2717,10
612,91	2686,20
613,36	2751,00
613,82	2634,40
614,27	2627,50
614,73	2620,60
615,18	2611,90
615,64	2614,20
616,09	2602,30
616,54	2585,80
617,00	2596,30
617,45	2598,10
617,91	2620,40
618,36	2586,00
618,82	2590,00
619,27	2590,20
619,72	2627,40
620,18	2592,80
620,63	2623,60
621,09	2629,70
621,54	2598,50
622,00	2622,10
622,45	2635,90
622,90	2620,40
623,36	2575,60
623,81	2579,40
624,27	2618,00
624,72	2565,90
625,17	2591,40
625,63	2592,20
626,08	2570,00
626,54	2588,50
626,99	2589,30
627,44	2565,60
627,90	2605,40
628,35	2601,90
628,81	2557,00
629,26	2586,70
629,71	2593,80
630,17	2576,50
630,62	2621,80
631,07	2606,70
631,53	2615,60
631,98	2597,60
632,43	2602,20
632,89	2558,50
633,34	2558,10
633,79	2553,40
634,25	2554,50
634,70	2551,30
635,15	2563,50
635,61	2552,80
636,06	2543,70
636,51	2572,10
636,97	2568,50
637,42	2544,80
637,87	2581,70
638,33	2587,60
638,78	2559,00
639,23	2571,50
639,69	2550,90
640,14	2537,10
640,59	2572,70
641,05	2593,50
641,50	2537,90
641,95	2562,20
642,40	2562,90
642,86	2540,30
643,31	2550,70
643,76	2584,80
644,22	2552,50
644,67	2540,70
645,12	2558,10
645,57	2548,10
646,03	2565,30
646,48	2565,40
646,93	2576,90
647,38	2589,00
647,84	2565,30
648,29	2581,00
648,74	2543,40
649,19	2594,40
649,65	2582,40
650,10	2696,40
650,55	2554,20
651,00	2551,90
651,46	2555,90
651,91	2572,20
652,36	2540,30
652,81	2565,60
653,27	2556,50
653,72	2549,40
654,17	2567,50
654,62	2574,00
655,07	2562,00
655,53	2533,50
655,98	2583,80
656,43	2545,20
656,88	2563,10
657,33	2574,00
657,79	2582,40
658,24	2545,20
658,69	2568,70
659,14	2537,30
659,59	2694,40
660,05	2552,60
660,50	2589,10
660,95	2560,00
661,40	2537,90
661,85	2560,50
662,30	2547,40
662,76	2535,70
663,21	2585,50
663,66	2554,60
664,11	2550,90
664,56	2564,30
665,01	2534,50
665,47	2570,70
665,92	2541,10
666,37	2570,10
666,82	2568,50
667,27	2631,30
667,72	2598,70
668,17	2541,70
668,62	2572,50
669,08	2543,10
669,53	2623,80
669,98	2522,80
670,43	2537,90
670,88	2591,80
671,33	2556,70
671,78	2608,00
672,23	2631,20
672,69	2564,20
673,14	2559,50
673,59	2590,60
674,04	2661,70
674,49	2563,10
674,94	2574,60
675,39	2525,70
675,84	2534,10
676,29	2569,20
676,74	2557,80
677,19	2548,40
677,64	2549,50
678,10	2636,60
678,55	2544,60
679,00	2556,40
679,45	2567,40
679,90	2548,70
680,35	2560,50
680,80	2559,80
681,25	2513,10
681,70	2522,90
682,15	2547,40
682,60	2562,10
683,05	2576,80
683,50	2577,70
683,95	2568,20
684,40	2602,40
684,85	2570,60
685,30	2560,30
685,75	2570,50
686,20	2557,60
686,65	2539,10
687,10	2569,70
687,55	2558,10
688,00	2568,40
688,45	2559,50
688,90	2639,10
689,35	2583,20
689,80	2536,80
690,25	2593,20
690,70	2633,90
691,15	2571,20
691,60	2572,70
692,05	2524,70
692,50	2567,10
692,95	2557,10
693,40	2587,00
693,85	2581,00
694,30	2569,20
694,75	2562,20
695,20	2695,50
695,65	2589,50
696,10	2691,20
696,55	2836,80
697,00	2672,90
697,45	2574,10
697,90	2583,00
698,35	2538,70
698,80	2583,70
699,24	2588,00
699,69	2537,30
700,14	2556,60
700,59	2584,10
701,04	2583,50
701,49	2668,00
701,94	2531,70
702,39	2600,80
702,84	2539,50
703,29	2553,00
703,74	2571,50
704,19	2558,10
704,63	2552,00
705,08	2594,20
705,53	2599,90
705,98	2606,40
706,43	2579,50
706,88	2634,50
707,33	2594,90
707,78	2583,10
708,22	2598,40
708,67	2614,90
709,12	2588,10
709,57	2564,80
710,02	2572,70
710,47	2565,60
710,92	2555,40
711,37	2582,10
711,81	2582,60
712,26	2585,30
712,71	2558,20
713,16	2632,20
713,61	2561,30
714,06	2563,50
714,50	2604,50
714,95	2594,70
715,40	2561,50
715,85	2571,30
716,30	2553,50
716,75	2552,30
717,19	2541,60
717,64	2525,80
718,09	2572,30
718,54	2606,90
718,99	2545,90
719,43	2531,00
719,88	2560,80
720,33	2551,40
720,78	2548,70
721,23	2567,00
721,67	2541,90
722,12	2573,00
722,57	2549,00
723,02	2533,10
723,47	2528,10
723,91	2554,70
724,36	2525,80
724,81	2571,60
725,26	2523,20
725,70	2547,70
726,15	2556,20
726,60	2572,30
727,05	2663,30
727,49	2579,50
727,94	2609,50
728,39	2587,80
728,84	2558,20
729,28	2591,40
729,73	2542,90
730,18	2581,50
730,63	2537,30
731,07	2553,50
731,52	2565,40
731,97	2568,80
732,41	2563,70
732,86	2540,80
733,31	2581,70
733,76	2553,30
734,20	2543,80
734,65	2584,90
735,10	2574,30
735,54	2558,30
735,99	2643,70
736,44	2539,00
736,89	2568,70
737,33	2587,10
737,78	2613,90
738,23	2652,20
738,67	2632,20
739,12	2586,60
739,57	2540,50
740,01	2593,80
740,46	2566,90
740,91	2539,90
741,35	2569,80
741,80	2580,70
742,25	2556,90
742,69	2558,40
743,14	2540,70
743,59	2540,00
744,03	2551,10
744,48	2584,70
744,92	2582,70
745,37	2560,30
745,82	2583,10
746,26	2596,50
746,71	2514,50
747,16	2538,70
747,60	2529,40
748,05	2581,20
748,49	2558,50
748,94	2556,50
749,39	2592,80
749,83	2736,10
750,28	2740,00
750,73	2711,30
751,17	2649,60
751,62	2636,60
752,06	2586,60
752,51	2557,70
752,95	2624,40
753,40	2542,80
753,85	2552,40
754,29	2532,70
754,74	2548,70
755,18	2537,50
755,63	2556,60
756,07	2560,80
756,52	2592,80
756,97	2547,70
757,41	2590,90
757,86	2565,20
758,30	2561,90
758,75	2559,30
759,19	2551,40
759,64	2536,40
760,08	2557,50
760,53	2578,90
760,98	2557,30
761,42	2586,50
761,87	2604,80
762,31	2594,30
762,76	2726,40
763,20	3109,50
763,65	3221,20
764,09	2884,70
764,54	2622,30
764,98	2578,40
765,43	2586,10
765,87	2551,50
766,32	2539,50
766,76	2545,10
767,21	2562,40
767,65	2566,20
768,10	2570,10
768,54	2579,00
768,99	2559,30
769,43	2616,20
769,88	2541,90
770,32	2560,60
770,77	2553,10
771,21	2559,30
771,65	2678,90
772,10	2848,60
772,54	2909,90
772,99	2713,80
773,43	2599,60
773,88	2565,80
774,32	2522,10
774,77	2555,60
775,21	2536,50
775,65	2567,20
776,10	2556,20
776,54	2531,00
776,99	2543,80
777,43	2548,40
777,88	2570,90
778,32	2568,00
778,76	2541,20
779,21	2562,30
779,65	2640,70
780,10	2593,30
780,54	2549,40
780,99	2581,10
781,43	2559,10
781,87	2533,30
782,32	2560,20
782,76	2534,60
783,20	2554,40
783,65	2573,80
784,09	2580,80
784,54	2555,50
784,98	2546,40
785,42	2543,80
785,87	2539,80
786,31	2573,00
786,75	2582,90
787,20	2592,40
787,64	2536,80
788,09	2541,70
788,53	2558,30
788,97	2540,50
789,42	2549,30
789,86	2543,50
790,30	2564,20
790,75	2529,20
791,19	2544,10
791,63	2582,20
792,08	2550,50
792,52	2562,50
792,96	2533,30
793,41	2692,80
793,85	2609,80
794,29	2643,70
794,74	2690,60
795,18	2678,70
795,62	2579,80
796,06	2585,40
796,51	2561,30
796,95	2567,00
797,39	2553,10
797,84	2539,80
798,28	2555,30
798,72	2588,00
799,16	2575,30
799,61	2555,30
800,05	2666,70
800,49	2664,00
800,94	2678,80
801,38	2675,80
801,82	2655,60
802,26	2574,90
802,71	2586,90
803,15	2613,40
803,59	2583,60
804,03	2568,40
804,48	2555,90
804,92	2549,20
805,36	2611,00
805,80	2620,30
806,25	2610,70
806,69	2585,40
807,13	2615,30
807,57	2554,70
808,01	2565,10
808,46	2537,40
808,90	2588,40
809,34	2596,20
809,78	2645,60
810,23	2677,80
810,67	2834,00
811,11	2955,50
811,55	3067,90
811,99	2863,10
812,44	2655,70
812,88	2618,00
813,32	2629,50
813,76	2585,60
814,20	2564,70
814,64	2586,10
815,09	2574,70
815,53	2570,10
815,97	2553,40
816,41	2544,70
816,85	2540,40
817,29	2575,00
817,74	2563,50
818,18	2589,10
818,62	2557,30
819,06	2576,10
819,50	2594,90
819,94	2553,50
820,39	2569,00
820,83	2555,80
821,27	2558,20
821,71	2541,50
822,15	2600,30
822,59	2542,50
823,03	2561,10
823,47	2565,30
823,92	2539,60
824,36	2566,30
824,80	2567,10
825,24	2600,30
825,68	2694,30
826,12	2732,10
826,56	2823,40
827,00	2700,90
827,44	2611,80
827,88	2593,30
828,33	2599,50
828,77	2559,40
829,21	2584,60
829,65	2574,20
830,09	2543,30
830,53	2605,10
830,97	2547,00
831,41	2623,90
831,85	2586,70
832,29	2578,40
832,73	2535,20
833,17	2553,10
833,61	2555,90
834,05	2596,30
834,49	2569,20
834,93	2558,60
835,37	2542,50
835,82	2584,30
836,26	2557,50
836,70	2570,90
837,14	2555,30
837,58	2598,90
838,02	2544,50
838,46	2549,50
838,90	2573,20
839,34	2566,10
839,78	2629,80
840,22	2724,50
840,66	2683,80
841,10	2759,50
841,54	2646,10
841,98	2690,70
842,42	2705,50
842,86	2724,70
843,30	2638,40
843,74	2572,70
844,18	2588,20
844,62	2567,40
845,06	2547,70
845,50	2575,60
845,94	2556,80
846,37	2589,30
846,81	2546,20
847,25	2545,20
847,69	2567,90
848,13	2540,50
848,57	2547,00
849,01	2550,10
849,45	2585,10
849,89	2590,40
850,33	2582,10
850,77	2559,60
851,21	2614,10
851,65	2588,20
852,09	2625,90
852,53	2653,10
852,97	2570,60
853,40	2547,70
853,84	2579,20
854,28	2529,20
854,72	2582,50
855,16	2524,60
855,60	2547,70
856,04	2588,00
856,48	2589,40
856,92	2562,60
857,36	2570,50
857,79	2557,30
858,23	2527,40
858,67	2590,00
859,11	2515,70
859,55	2547,30
859,99	2541,10
860,43	2549,20
860,87	2559,00
861,30	2579,80
861,74	2540,70
862,18	2549,40
862,62	2568,40
863,06	2541,80
863,50	2543,90
863,94	2578,60
864,37	2543,50
864,81	2562,20
865,25	2553,50
865,69	2525,30
866,13	2561,70
866,57	2531,70
867,00	2587,60
867,44	2541,90
867,88	2576,20
868,32	2545,90
868,76	2544,50
869,19	2572,50
869,63	2555,20
870,07	2592,30
870,51	2629,60
870,95	2529,20
871,38	2561,10
871,82	2553,00
872,26	2542,70
872,70	2559,70
873,14	2575,80
873,57	2565,60
874,01	2583,10
874,45	2581,20
874,89	2545,10
875,32	2537,90
875,76	2583,50
876,20	2513,80
876,64	2566,10
877,07	2551,00
877,51	2560,80
877,95	2558,00
878,39	2553,30
878,82	2568,50
879,26	2543,20
879,70	2600,30
880,14	2536,50
880,57	2534,40
881,01	2543,30
881,45	2555,30
881,89	2574,10
882,32	2551,90
882,76	2543,70
883,20	2557,20
883,63	2552,40
884,07	2538,90
884,51	2575,30
884,94	2553,50
885,38	2569,50
885,82	2574,70
886,26	2550,30
886,69	2539,20
887,13	2606,20
887,57	2531,30
888,00	2535,80
888,44	2552,00
888,88	2543,90
889,31	2651,80
889,75	2526,80
890,19	2579,10
890,62	2542,50
891,06	2563,70
891,50	2568,90
891,93	2530,40
892,37	2546,20
892,81	2548,90
893,24	2535,90
893,68	2545,70
894,11	2562,20
894,55	2545,30
894,99	2571,10
895,42	2549,00
895,86	2534,30
896,30	2563,00
896,73	2564,70
897,17	2535,70
897,60	2536,50
898,04	2536,20
898,48	2563,00
898,91	2588,30
899,35	2540,30
899,78	2534,10
900,22	2546,80
900,66	2565,40
901,09	2574,60
901,53	2543,60
901,96	2609,30
902,40	2607,80
902,84	2532,90
903,27	2543,80
903,71	2604,50
904,14	2542,90
904,58	2558,40
905,01	2544,00
905,45	2553,20
905,88	2531,70
906,32	2586,60
906,76	2558,00
907,19	2587,10
907,63	2578,90
908,06	2563,60
908,50	2584,40
908,93	2613,90
909,37	2555,80
909,80	2543,80
910,24	2591,50
910,67	2607,20
911,11	2687,30
911,54	2823,60
911,98	2777,80
912,41	2996,40
912,85	2865,80
913,28	2684,10
913,72	2621,50
914,15	2583,80
914,59	2558,80
915,02	2549,30
915,46	2562,30
915,89	2552,20
916,33	2590,40
916,76	2559,00
917,20	2593,50
917,63	2548,50
918,07	2580,30
918,50	2548,70
918,94	2567,70
919,37	2557,10
919,81	2572,20
920,24	2584,20
920,67	2570,00
921,11	2621,20
921,54	2628,00
921,98	2584,90
922,41	2600,50
922,85	2602,60
923,28	2597,60
923,72	2607,60
924,15	2580,40
924,58	2536,20
925,02	2578,40
925,45	2541,30
925,89	2573,50
926,32	2619,50
926,75	2550,20
927,19	2579,00
927,62	2526,70
928,06	2614,70
928,49	2553,80
928,92	2532,20
929,36	2592,50
929,79	2555,70
930,23	2563,00
930,66	2567,70
931,09	2541,60
931,53	2571,50
931,96	2518,80
932,39	2606,80
932,83	2585,40
933,26	2639,60
933,70	2545,00
934,13	2583,50
934,56	2576,10
935,00	2568,10
935,43	2561,40
935,86	2536,00
936,30	2552,90
936,73	2538,00
937,16	2562,20
937,60	2533,00
938,03	2578,00
938,46	2538,10
938,90	2547,60
939,33	2574,00
939,76	2532,10
940,19	2550,20
940,63	2582,20
941,06	2611,60
941,49	2538,80
941,93	2582,30
942,36	2538,90
942,79	2540,80
943,23	2570,30
943,66	2529,10
944,09	2514,80
944,52	2564,10
944,96	2539,00
945,39	2563,30
945,82	2548,50
946,26	2558,20
946,69	2559,80
947,12	2585,20
947,55	2545,30
947,99	2552,40
948,42	2566,30
948,85	2523,20
949,28	2529,70
949,72	2531,40
950,15	2627,60
950,58	2591,80
951,01	2535,80
951,45	2538,80
951,88	2563,10
952,31	2518,70
952,74	2567,10
953,17	2541,70
953,61	2607,90
954,04	2525,50
954,47	2537,00
954,90	2543,40
955,33	2544,20
955,77	2547,10
956,20	2564,50
956,63	2534,80
957,06	2559,60
957,49	2641,70
957,93	2537,00
958,36	2563,60
958,79	2558,00
959,22	2537,40
959,65	2536,20
960,08	2546,90
960,52	2516,90
960,95	2545,40
961,38	2573,80
961,81	2567,50
962,24	2585,60
962,67	2584,90
963,11	2543,20
963,54	2573,00
963,97	2558,00
964,40	2585,90
964,83	2608,80
965,26	2579,30
965,69	2641,60
966,13	2625,30
966,56	2582,00
966,99	2585,50
967,42	2550,30
967,85	2552,30
968,28	2597,50
968,71	2683,20
969,14	2572,20
969,57	2557,10
970,01	2566,70
970,44	2535,60
970,87	2540,20
971,30	2563,90
971,73	2544,30
972,16	2559,50
972,59	2527,10
973,02	2541,00
973,45	2550,50
973,88	2567,50
974,31	2551,40
974,74	2569,90
975,17	2560,70
975,61	2544,20
976,04	2544,90
976,47	2543,30
976,90	2563,60
977,33	2536,10
977,76	2582,00
978,19	2560,40
978,62	2560,00
979,05	2547,90
979,48	2546,20
979,91	2578,10
980,34	2572,20
980,77	2539,80
981,20	2562,20
981,63	2581,60
982,06	2549,90
982,49	2550,70
982,92	2538,00
983,35	2544,60
983,78	2539,30
984,21	2574,30
984,64	2573,50
985,07	2527,20
985,50	2520,20
985,93	2547,50
986,36	2571,40
986,79	2544,30
987,22	2535,40
987,65	2565,60
988,08	2556,10
988,51	2554,30
988,94	2549,10
989,37	2560,00
989,80	2549,30
990,23	2545,40
990,66	2564,50
991,09	2546,10
991,51	2566,70
991,94	2608,50
992,37	2544,70
992,80	2544,00
993,23	2558,80
993,66	2542,50
994,09	2546,50
994,52	2569,60
994,95	2574,80
995,38	2560,50
995,81	2565,20
996,24	2525,00
996,67	2531,90
997,09	2521,80
997,52	2595,40
997,95	2581,80
998,38	2550,00
998,81	2572,30
999,24	2545,10
999,67	2607,40
1000,10	2566,40
1000,53	2577,00
1000,95	2604,60
1001,38	2547,00
1001,81	2574,00
1002,24	2598,10
1002,67	2580,70
1003,10	2581,80
1003,53	2585,30
1003,95	2597,60
1004,38	2568,70
1004,81	2591,70
1005,24	2597,80
1005,67	2628,00
1006,10	2601,70
1006,52	2575,70
1006,95	2636,00
1007,38	2625,50
1007,81	2609,40
1008,24	2617,30
1008,67	2649,30
1009,09	2658,90
1009,52	2775,70
1009,95	2717,60
1010,38	2738,10
1010,81	2741,00
1011,23	2771,70
1011,66	2841,00
1012,09	2932,40
1012,52	3324,80
1012,95	3495,00
1013,37	3312,40
1013,80	3857,80
1014,23	3962,10
1014,66	3397,10
1015,08	3007,00
1015,51	2905,50
1015,94	2791,40
1016,37	2765,50
1016,80	2711,90
1017,22	2708,60
1017,65	2687,90
1018,08	2664,40
1018,51	2657,70
1018,93	2621,40
1019,36	2711,70
1019,79	2660,70
1020,21	2645,80
1020,64	2609,60
1021,07	2603,50
1021,50	2616,80
1021,92	2614,20
1022,35	2602,50
1022,78	2588,90
1023,21	2691,60
1023,63	2611,30
1024,06	2606,50
1024,49	2597,80
1024,91	2586,70
1025,34	2575,80
1025,77	2587,60
1026,19	2550,40
1026,62	2547,40
1027,05	2631,30
1027,47	2581,50
1027,90	2569,60
1028,33	2560,20
1028,75	2566,10
1029,18	2548,60
1029,61	2624,50
1030,03	2557,10
1030,46	2552,30
1030,89	2571,40
1031,31	2596,00
1031,74	2524,60
1032,17	2567,40
1032,59	2579,40
1033,02	2554,60
1033,45	2583,50
1033,87	2544,90
1034,30	2535,80
1034,73	2567,70
1035,15	2579,30
1035,58	2541,70
1036,00	2605,10
1036,43	2537,30
1036,86	2537,50
1037,28	2560,60
1037,71	2527,70
1038,13	2572,60
1038,56	2576,70
1038,99	2579,90
1039,41	2588,70
1039,84	2595,30
1040,26	2545,50
1040,69	2548,50
1041,11	2567,00
1041,54	2548,10
1041,97	2587,30
1042,39	2590,10
1042,82	2561,40
1043,24	2583,20
1043,67	2557,00
1044,09	2582,40
1044,52	2535,50
1044,95	2544,90
1045,37	2545,50
1045,80	2535,80
1046,22	2568,10
1046,65	2568,30
1047,07	2534,50
1047,50	2565,40
1047,92	2581,30
1048,35	2535,40
1048,77	2581,40
1049,20	2576,10
1049,62	2579,10
1050,05	2542,10
1050,47	2543,80
1050,90	2569,40
1051,32	2579,30
1051,75	2577,70
1052,17	2584,00
1052,60	2556,00
1053,02	2568,60
1053,45	2511,70
1053,87	2555,20
1054,30	2516,10
1054,72	2542,60
1055,15	2536,70
1055,57	2564,90
1056,00	2562,50
1056,42	2601,30
1056,85	2581,70
1057,27	2573,20
1057,70	2557,00
1058,12	2667,80
1058,54	2528,00
1058,97	2566,20
1059,39	2569,90
1059,82	2553,60
1060,24	2546,10
1060,67	2545,50
1061,09	2577,20
1061,51	2559,40
1061,94	2542,00
1062,36	2576,90
1062,79	2600,20
1063,21	2557,30
1063,64	2549,50
1064,06	2536,00
1064,48	2590,70
1064,91	2584,90
1065,33	2540,70
1065,76	2533,70
1066,18	2524,70
1066,60	2577,10
1067,03	2562,60
1067,45	2549,30
1067,87	2559,70
1068,30	2545,50
1068,72	2599,30
1069,15	2561,90
1069,57	2539,80
1069,99	2522,90
1070,42	2574,50
1070,84	2591,10
1071,26	2575,30
1071,69	2550,90
1072,11	2563,40
1072,53	2546,70
1072,96	2531,80
1073,38	2529,30
1073,80	2568,10
1074,23	2548,30
1074,65	2521,80
1075,07	2543,90
1075,50	2545,00
1075,92	2557,80
1076,34	2537,10
1076,77	2538,40
1077,19	2553,80
1077,61	2578,00
1078,04	2546,00
1078,46	2566,80
1078,88	2592,80
1079,30	2516,50
1079,73	2555,40
1080,15	2542,30
1080,57	2550,10
1081,00	2571,60
1081,42	2550,20
1081,84	2543,90
1082,26	2558,30
1082,69	2546,40
1083,11	2547,50
1083,53	2549,10
1083,95	2552,60
1084,38	2572,30
1084,80	2556,50
1085,22	2550,10
1085,64	2582,40
1086,07	2536,80
1086,49	2545,30
1086,91	2556,70
1087,33	2512,90
1087,76	2568,90
1088,18	3444,00
1088,60	2557,80
1089,02	2535,70
1089,45	2537,90
1089,87	2538,30
1090,29	2589,40
1090,71	2549,00
1091,13	2531,50
1091,56	2551,60
1091,98	2543,50
1092,40	2533,80
1092,82	2551,40
1093,24	2533,50
1093,66	2550,20
1094,09	2541,50
1094,51	2552,20
1094,93	2546,50
1095,35	2548,00
1095,77	2538,30
1096,19	2550,20
1096,62	2558,40
1097,04	2528,60
1097,46	2553,00
1097,88	2527,10
1098,30	2563,20
1098,72	2567,00
1099,15	2574,10
1099,57	2548,00
1099,99	2539,30
1100,41	2535,20
1100,83	2537,60
1101,25	2536,60
1101,67	2554,30
1102,09	2519,20
1102,52	2538,50
1102,94	2544,10
1103,36	2545,70
1103,78	2551,60
1104,20	2538,30
1104,62	2587,10
1105,04	2504,20
1105,46	2549,10
1105,88	2543,60
1106,30	2530,30
1106,73	2543,00
1107,15	2502,70
1107,57	2516,90
1107,99	2574,00
1108,41	2518,60
1108,83	2551,00
1109,25	2550,90
1109,67	2554,60
1110,09	2507,30
1110,51	2530,10
1110,93	2510,10
1111,35	2527,00
1111,77	2512,50
1112,19	2522,40
1112,61	2501,50
1113,03	2526,50
1113,45	2517,80
1113,87	2522,00
1114,29	2544,80
1114,71	2545,60
1115,13	2522,90
1115,55	2528,00
1115,98	2523,20
1116,40	2543,30
1116,82	2536,90
1117,24	2528,50
1117,66	2520,10
1118,08	2177,40
1118,50	2184,20
1118,91	2185,30
1119,33	2184,70
>>>>>End Processed Spectral Data<<<<<
