SpectraSuite Data File
++++++++++++++++++++++++++++++++++++
Date: Tue Oct 14 08:40:57 EEST 2014
User: OO Maya
Dark Spectrum Present: No
Reference Spectrum Present: No
Number of Sampled Component Spectra: 1
Spectrometers: MAYP11278
Integration Time (usec): 100000 (MAYP11278)
Spectra Averaged: 10 (MAYP11278)
Boxcar Smoothing: 0 (MAYP11278)
Correct for Electrical Dark: No (MAYP11278)
Strobe/Lamp Enabled: No (MAYP11278)
Correct for Detector Non-linearity: No (MAYP11278)
Correct for Stray Light: No (MAYP11278)
Number of Pixels in Processed Spectrum: 2068
>>>>>Begin Processed Spectral Data<<<<<
188,22	2307,10
188,70	2224,60
189,18	2194,30
189,66	2193,80
190,13	2360,40
190,61	2361,50
191,09	2367,30
191,57	2366,10
192,05	2379,70
192,53	2369,00
193,00	2362,20
193,48	2362,70
193,96	2370,80
194,44	2363,90
194,92	2369,80
195,40	2362,50
195,87	2377,70
196,35	2359,90
196,83	2368,80
197,31	2393,60
197,79	2362,40
198,26	2351,30
198,74	2366,80
199,22	2358,10
199,70	2369,10
200,18	2375,90
200,65	2365,90
201,13	2354,40
201,61	2373,80
202,09	2373,70
202,56	2374,40
203,04	2355,70
203,52	2370,80
204,00	2359,80
204,47	2371,80
204,95	2381,70
205,43	2360,70
205,91	2362,10
206,39	2382,70
206,86	2364,30
207,34	2371,10
207,82	2391,50
208,30	2371,10
208,77	2375,70
209,25	2366,60
209,73	2378,30
210,20	2374,10
210,68	2366,20
211,16	2368,10
211,64	2373,80
212,11	2365,80
212,59	2361,20
213,07	2386,40
213,55	2373,30
214,02	2364,50
214,50	2386,60
214,98	2369,40
215,45	2390,20
215,93	2376,10
216,41	2374,50
216,89	2376,30
217,36	2374,00
217,84	2362,70
218,32	2375,60
218,79	2385,50
219,27	2355,70
219,75	2359,40
220,22	2364,50
220,70	2364,00
221,18	2389,70
221,65	2365,50
222,13	2376,70
222,61	2367,70
223,08	2376,40
223,56	2371,40
224,04	2372,00
224,51	2368,80
224,99	2369,10
225,47	2359,50
225,94	2371,00
226,42	2365,70
226,90	2368,20
227,37	2379,10
227,85	2368,00
228,33	2372,00
228,80	2378,40
229,28	2377,30
229,76	2369,60
230,23	2371,40
230,71	2365,90
231,18	2379,10
231,66	2388,90
232,14	2367,90
232,61	2370,20
233,09	2361,90
233,57	2366,70
234,04	2375,70
234,52	2411,20
234,99	2375,60
235,47	2368,00
235,95	2369,90
236,42	2359,40
236,90	2381,10
237,37	2391,20
237,85	2365,50
238,33	2366,40
238,80	2371,30
239,28	2373,60
239,75	2370,50
240,23	2363,50
240,70	2377,40
241,18	2385,10
241,66	2372,70
242,13	2365,50
242,61	2381,10
243,08	2385,90
243,56	2359,60
244,03	2364,80
244,51	2381,70
244,99	2388,30
245,46	2366,70
245,94	2381,90
246,41	2727,90
246,89	2354,40
247,36	2374,40
247,84	2367,40
248,31	2378,90
248,79	2376,60
249,26	2357,90
249,74	2373,70
250,22	2381,30
250,69	2377,70
251,17	2388,50
251,64	2376,50
252,12	2390,70
252,59	2386,70
253,07	2370,40
253,54	2386,20
254,02	2377,40
254,49	2369,50
254,97	2372,90
255,44	2375,10
255,92	2381,00
256,39	2367,50
256,87	2376,70
257,34	2383,10
257,82	2381,10
258,29	2405,70
258,77	2376,40
259,24	2369,00
259,72	2373,40
260,19	2377,40
260,67	2392,10
261,14	2367,40
261,61	2370,30
262,09	2386,70
262,56	2366,40
263,04	2379,40
263,51	2366,40
263,99	2359,40
264,46	2379,90
264,94	2383,80
265,41	2368,10
265,89	2377,50
266,36	2379,20
266,83	2380,90
267,31	2367,50
267,78	2370,80
268,26	2374,30
268,73	2378,90
269,21	2360,80
269,68	2365,60
270,15	2367,70
270,63	2382,50
271,10	2385,80
271,58	2372,20
272,05	2374,50
272,53	2363,50
273,00	2361,50
273,47	2349,10
273,95	2377,80
274,42	2413,60
274,90	2377,20
275,37	2384,80
275,84	2366,10
276,32	2374,40
276,79	2382,90
277,26	2382,70
277,74	2364,80
278,21	2371,70
278,69	2362,80
279,16	2412,30
279,63	2372,90
280,11	2369,50
280,58	2417,50
281,05	2387,30
281,53	2404,00
282,00	2368,40
282,48	2388,50
282,95	2373,10
283,42	2372,20
283,90	2376,60
284,37	2368,70
284,84	2364,60
285,32	2378,90
285,79	2371,00
286,26	2381,40
286,74	2375,80
287,21	2362,40
287,68	2379,90
288,16	2392,50
288,63	2374,60
289,10	2376,20
289,58	2354,70
290,05	2390,10
290,52	2363,20
291,00	2374,20
291,47	2366,70
291,94	2383,10
292,41	2396,50
292,89	2365,20
293,36	2386,70
293,83	2368,10
294,31	2382,00
294,78	2380,40
295,25	2367,80
295,73	2378,80
296,20	2380,40
296,67	2392,50
297,14	2387,20
297,62	2376,80
298,09	2377,10
298,56	2379,90
299,03	2368,40
299,51	2389,10
299,98	2368,50
300,45	2376,20
300,92	2368,80
301,40	2386,10
301,87	2387,00
302,34	2380,40
302,82	2367,60
303,29	2380,00
303,76	2378,20
304,23	2367,30
304,70	2363,50
305,18	2361,90
305,65	2375,70
306,12	2377,80
306,59	2372,40
307,07	2381,90
307,54	2366,20
308,01	2372,50
308,48	2374,10
308,95	2373,50
309,43	2385,90
309,90	2378,80
310,37	2379,20
310,84	2377,30
311,32	2375,50
311,79	2372,20
312,26	2387,80
312,73	2375,60
313,20	2398,00
313,68	2372,80
314,15	2372,30
314,62	2371,00
315,09	2369,20
315,56	2369,40
316,03	2383,90
316,51	2380,20
316,98	2376,60
317,45	2378,40
317,92	2375,70
318,39	2404,00
318,86	2375,20
319,34	2370,70
319,81	2362,80
320,28	2385,20
320,75	2391,70
321,22	2381,60
321,69	2369,40
322,16	2362,40
322,64	2366,90
323,11	2395,20
323,58	2376,10
324,05	2407,40
324,52	2358,10
324,99	2380,00
325,46	2368,60
325,94	2373,40
326,41	2369,40
326,88	2371,80
327,35	2380,10
327,82	2379,20
328,29	2384,80
328,76	2377,10
329,23	2370,20
329,70	2370,00
330,18	2369,80
330,65	2368,20
331,12	2378,80
331,59	2381,60
332,06	2397,70
332,53	2371,20
333,00	2396,00
333,47	2383,40
333,94	2381,00
334,41	2390,50
334,88	2376,80
335,35	2374,90
335,83	2416,30
336,30	2367,30
336,77	2372,50
337,24	2373,80
337,71	2376,20
338,18	2368,00
338,65	2366,30
339,12	2390,80
339,59	2384,60
340,06	2372,60
340,53	2366,30
341,00	2364,50
341,47	2377,80
341,94	2393,40
342,41	2369,90
342,88	2376,60
343,35	2382,70
343,82	2379,60
344,29	2370,30
344,76	2374,70
345,23	2368,50
345,70	2372,10
346,17	2380,70
346,64	2371,60
347,11	2369,90
347,58	2395,30
348,05	2370,00
348,52	2389,40
348,99	2376,90
349,46	2359,80
349,93	2375,00
350,40	2380,90
350,87	2371,10
351,34	2363,50
351,81	2378,40
352,28	2389,60
352,75	2374,70
353,22	2372,30
353,69	2378,40
354,16	2379,90
354,63	2380,20
355,10	2381,30
355,57	2378,50
356,04	2389,90
356,51	2362,80
356,98	2392,50
357,45	2361,80
357,92	2396,80
358,39	2381,30
358,86	2361,10
359,33	2364,40
359,80	2369,90
360,27	2372,10
360,74	2380,80
361,20	2392,20
361,67	2372,30
362,14	2371,70
362,61	2376,30
363,08	2369,10
363,55	2380,80
364,02	2397,10
364,49	2379,80
364,96	2371,40
365,43	2383,40
365,90	2369,30
366,37	2367,10
366,83	2378,90
367,30	2372,50
367,77	2620,50
368,24	2355,50
368,71	2368,20
369,18	2382,70
369,65	2366,70
370,12	2380,90
370,59	2374,60
371,05	2373,10
371,52	2502,40
371,99	2374,30
372,46	2367,90
372,93	2358,40
373,40	2377,10
373,87	2380,20
374,33	2363,30
374,80	2367,90
375,27	2377,10
375,74	2364,20
376,21	2390,30
376,68	2374,70
377,15	2365,90
377,61	2364,30
378,08	2376,00
378,55	2377,70
379,02	2368,40
379,49	2371,80
379,96	2375,30
380,42	2381,50
380,89	2391,00
381,36	2374,20
381,83	2392,20
382,30	2394,20
382,76	2357,60
383,23	2377,40
383,70	2374,30
384,17	2385,00
384,64	2377,00
385,10	2429,30
385,57	2375,40
386,04	2371,20
386,51	2376,00
386,98	2394,20
387,44	2367,80
387,91	2361,70
388,38	2381,30
388,85	2377,20
389,31	2388,00
389,78	2364,00
390,25	2378,20
390,72	2381,10
391,19	2376,80
391,65	2374,50
392,12	2377,30
392,59	2379,10
393,06	2370,10
393,52	2372,20
393,99	2395,30
394,46	2373,30
394,93	2382,20
395,39	2373,90
395,86	2375,20
396,33	2427,60
396,80	2360,10
397,26	2384,50
397,73	2384,00
398,20	2364,50
398,66	2377,70
399,13	2370,20
399,60	2368,60
400,07	2383,80
400,53	2362,50
401,00	2370,30
401,47	2366,80
401,93	2382,50
402,40	2375,60
402,87	2379,90
403,34	2364,20
403,80	2391,30
404,27	2380,60
404,74	2389,70
405,20	2393,70
405,67	2380,80
406,14	2364,40
406,60	2382,30
407,07	2378,40
407,54	2397,00
408,00	2376,10
408,47	2377,50
408,94	2375,90
409,40	2365,10
409,87	2388,10
410,34	2361,90
410,80	2386,10
411,27	2366,90
411,74	2391,90
412,20	2374,10
412,67	2358,80
413,14	2379,80
413,60	2374,30
414,07	2371,80
414,53	2382,30
415,00	2391,20
415,47	2364,70
415,93	2394,20
416,40	2380,10
416,87	2372,00
417,33	2390,50
417,80	2380,50
418,26	2370,70
418,73	2383,90
419,20	2376,60
419,66	2385,20
420,13	2364,20
420,59	2384,20
421,06	2365,90
421,53	2377,10
421,99	2371,00
422,46	2376,80
422,92	2370,80
423,39	2374,40
423,86	2378,40
424,32	2379,50
424,79	2372,60
425,25	2379,50
425,72	2378,80
426,18	2393,80
426,65	2370,40
427,11	2383,90
427,58	2384,00
428,05	2380,20
428,51	2366,30
428,98	2386,80
429,44	2378,60
429,91	2374,40
430,37	2376,30
430,84	2406,80
431,30	2359,50
431,77	2369,70
432,23	2393,80
432,70	2390,50
433,17	2373,00
433,63	2369,80
434,10	2378,60
434,56	2369,30
435,03	2384,70
435,49	2360,50
435,96	2379,80
436,42	2374,60
436,89	2362,90
437,35	2383,30
437,82	2378,50
438,28	2377,30
438,75	2366,90
439,21	2369,80
439,68	2417,00
440,14	2377,50
440,61	2381,30
441,07	2390,30
441,54	2365,10
442,00	2367,20
442,47	2397,70
442,93	2362,20
443,39	2380,60
443,86	2374,40
444,32	2361,40
444,79	2393,90
445,25	2376,20
445,72	2378,80
446,18	2372,40
446,65	2378,10
447,11	2366,60
447,58	2376,70
448,04	2368,70
448,50	2364,10
448,97	2384,30
449,43	2376,10
449,90	2371,70
450,36	2368,60
450,83	2366,10
451,29	2372,70
451,75	2374,00
452,22	2379,70
452,68	2359,70
453,15	2387,90
453,61	2374,90
454,08	2372,70
454,54	2373,90
455,00	2377,10
455,47	2374,30
455,93	2375,90
456,40	2381,60
456,86	2366,50
457,32	2381,50
457,79	2372,70
458,25	2371,10
458,71	2365,20
459,18	2377,20
459,64	2371,00
460,11	2374,30
460,57	2369,10
461,03	2363,80
461,50	2391,60
461,96	2381,40
462,42	2366,50
462,89	2363,10
463,35	2388,50
463,81	2372,80
464,28	2374,60
464,74	2380,40
465,21	2365,00
465,67	2369,20
466,13	2384,00
466,60	2377,70
467,06	2377,10
467,52	2379,70
467,99	2370,30
468,45	2379,30
468,91	2377,30
469,37	2378,40
469,84	2362,70
470,30	2376,20
470,76	2378,50
471,23	2370,00
471,69	2365,30
472,15	2364,10
472,62	2369,70
473,08	2374,60
473,54	2386,60
474,01	2374,60
474,47	2371,40
474,93	2369,60
475,39	2359,60
475,86	2380,10
476,32	2373,00
476,78	2378,80
477,25	2370,50
477,71	2374,60
478,17	2396,40
478,63	2375,30
479,10	2381,70
479,56	2360,00
480,02	2395,80
480,48	2381,70
480,95	2374,50
481,41	2367,50
481,87	2369,50
482,33	2377,70
482,80	2363,50
483,26	2371,20
483,72	2362,40
484,18	2366,70
484,65	2395,50
485,11	2374,50
485,57	2370,00
486,03	2357,40
486,49	2370,10
486,96	2359,60
487,42	2376,00
487,88	2354,90
488,34	2364,80
488,80	2373,60
489,27	2378,80
489,73	2372,80
490,19	2384,00
490,65	2361,20
491,11	2380,30
491,58	2365,50
492,04	2365,00
492,50	2358,60
492,96	2386,80
493,42	2371,60
493,89	2373,50
494,35	2360,00
494,81	2369,80
495,27	2370,30
495,73	2363,90
496,19	2369,60
496,66	2364,80
497,12	2370,30
497,58	2390,80
498,04	2386,90
498,50	2368,00
498,96	2376,80
499,43	2366,80
499,89	2393,80
500,35	2373,00
500,81	2365,60
501,27	2377,10
501,73	2364,00
502,19	2375,70
502,65	2370,00
503,12	2368,30
503,58	2371,60
504,04	2376,30
504,50	2372,10
504,96	2373,90
505,42	2372,10
505,88	2366,90
506,34	2369,10
506,80	2379,00
507,27	2372,60
507,73	2374,00
508,19	2374,00
508,65	2365,80
509,11	2364,80
509,57	2359,00
510,03	2371,40
510,49	2373,50
510,95	2370,80
511,41	2385,50
511,87	2380,70
512,33	2367,00
512,80	2355,00
513,26	2364,20
513,72	2375,60
514,18	2352,70
514,64	2385,50
515,10	2393,40
515,56	2359,00
516,02	2371,20
516,48	2383,70
516,94	2379,00
517,40	2402,90
517,86	2376,80
518,32	2376,00
518,78	2413,50
519,24	2369,90
519,70	2365,90
520,16	2360,50
520,62	2362,70
521,08	2379,10
521,54	2377,50
522,00	2379,60
522,46	2373,90
522,92	2361,10
523,38	2396,20
523,84	2383,40
524,30	2370,20
524,76	2398,20
525,22	2381,10
525,68	2378,50
526,14	2387,00
526,60	2374,70
527,06	2380,70
527,52	2366,20
527,98	2371,40
528,44	2376,70
528,90	2379,40
529,36	2369,70
529,82	2365,70
530,28	2377,50
530,74	2380,60
531,20	2362,30
531,66	2384,50
532,12	2372,10
532,58	2378,70
533,04	2373,40
533,50	2376,70
533,96	2373,00
534,42	2360,10
534,88	2373,70
535,33	2368,20
535,79	2374,10
536,25	2367,60
536,71	2382,00
537,17	2357,60
537,63	2378,60
538,09	2367,20
538,55	2370,30
539,01	2393,30
539,47	2380,70
539,93	2432,80
540,39	2362,70
540,84	2390,90
541,30	2372,20
541,76	2360,60
542,22	2379,70
542,68	2371,20
543,14	2364,90
543,60	2400,50
544,06	2359,90
544,52	2399,90
544,97	2383,10
545,43	2370,60
545,89	2374,20
546,35	2382,40
546,81	2371,60
547,27	2378,10
547,73	2381,00
548,19	2374,60
548,64	2368,10
549,10	2368,60
549,56	2363,80
550,02	2400,40
550,48	2371,70
550,94	2361,60
551,39	2377,20
551,85	2372,50
552,31	2398,00
552,77	2377,20
553,23	2367,80
553,69	2375,70
554,14	2372,90
554,60	2362,90
555,06	2373,90
555,52	2372,80
555,98	2391,70
556,43	2376,50
556,89	2390,40
557,35	2361,50
557,81	2372,50
558,27	2393,90
558,72	2368,20
559,18	2367,60
559,64	2362,40
560,10	2370,50
560,56	2364,00
561,01	2373,80
561,47	2367,40
561,93	2370,80
562,39	2366,70
562,85	2366,00
563,30	2376,60
563,76	2381,30
564,22	2359,60
564,68	2374,90
565,13	2367,00
565,59	2368,80
566,05	2371,50
566,51	2383,80
566,96	2368,70
567,42	2365,50
567,88	2376,20
568,34	2383,50
568,79	2370,90
569,25	2373,80
569,71	2377,00
570,16	2374,40
570,62	2370,00
571,08	2379,60
571,54	2377,80
571,99	2367,70
572,45	2375,40
572,91	2377,10
573,36	2366,70
573,82	2363,70
574,28	2374,80
574,74	2389,60
575,19	2379,30
575,65	2363,60
576,11	2375,60
576,56	2357,40
577,02	2385,70
577,48	2369,60
577,93	2365,80
578,39	2367,90
578,85	2388,00
579,30	2383,30
579,76	2365,90
580,22	2380,10
580,67	2375,10
581,13	2371,60
581,59	2371,50
582,04	2374,80
582,50	2372,60
582,96	2362,60
583,41	2368,60
583,87	2379,00
584,33	2367,80
584,78	2375,90
585,24	2366,60
585,69	2398,00
586,15	2366,30
586,61	2368,10
587,06	2372,20
587,52	2371,60
587,98	2376,80
588,43	2363,30
588,89	2381,60
589,34	2368,50
589,80	2366,00
590,26	2376,20
590,71	2382,30
591,17	2369,90
591,62	2360,00
592,08	2385,80
592,54	2370,80
592,99	2370,60
593,45	2372,10
593,90	2372,80
594,36	2372,00
594,81	2372,80
595,27	2386,50
595,73	2366,90
596,18	2367,60
596,64	2390,50
597,09	2383,10
597,55	2382,20
598,00	2375,90
598,46	2357,60
598,92	2373,90
599,37	2388,00
599,83	2365,30
600,28	2377,50
600,74	2384,50
601,19	2371,80
601,65	2377,30
602,10	2360,30
602,56	2407,10
603,01	2370,20
603,47	2374,70
603,92	2359,00
604,38	2358,70
604,83	2377,60
605,29	2365,60
605,74	2375,20
606,20	2373,40
606,65	2357,00
607,11	2377,00
607,56	2371,20
608,02	2373,40
608,47	2377,50
608,93	2367,70
609,38	2399,40
609,84	2384,40
610,29	2369,50
610,75	2369,10
611,20	2372,70
611,66	2358,50
612,11	2388,40
612,57	2379,40
613,02	2374,20
613,48	2406,90
613,93	2363,00
614,39	2355,10
614,84	2364,40
615,30	2362,20
615,75	2373,40
616,20	2374,50
616,66	2358,30
617,11	2371,70
617,57	2369,10
618,02	2378,90
618,48	2359,80
618,93	2365,30
619,38	2368,90
619,84	2374,10
620,29	2370,50
620,75	2376,80
621,20	2380,90
621,66	2368,00
622,11	2381,10
622,56	2384,80
623,02	2383,50
623,47	2367,40
623,93	2363,60
624,38	2378,60
624,83	2364,30
625,29	2367,60
625,74	2374,90
626,20	2360,20
626,65	2372,10
627,10	2376,80
627,56	2365,90
628,01	2377,60
628,46	2382,70
628,92	2360,10
629,37	2369,40
629,82	2370,20
630,28	2362,20
630,73	2375,80
631,19	2373,50
631,64	2377,40
632,09	2378,90
632,55	2380,70
633,00	2362,30
633,45	2366,50
633,91	2363,10
634,36	2368,80
634,81	2364,30
635,27	2365,00
635,72	2368,10
636,17	2357,20
636,63	2375,10
637,08	2365,60
637,53	2367,20
637,99	2376,80
638,44	2380,30
638,89	2366,10
639,34	2370,90
639,80	2363,70
640,25	2357,20
640,70	2376,90
641,16	2383,10
641,61	2360,40
642,06	2365,50
642,51	2368,50
642,97	2359,30
643,42	2366,40
643,87	2376,80
644,33	2364,60
644,78	2366,70
645,23	2365,20
645,68	2362,90
646,14	2373,70
646,59	2374,70
647,04	2374,60
647,49	2375,80
647,95	2366,60
648,40	2371,10
648,85	2359,90
649,30	2380,00
649,76	2378,40
650,21	2417,20
650,66	2358,90
651,11	2362,20
651,57	2363,20
652,02	2378,80
652,47	2357,40
652,92	2369,00
653,37	2363,10
653,83	2362,50
654,28	2375,10
654,73	2373,00
655,18	2368,00
655,63	2356,50
656,09	2375,60
656,54	2365,10
656,99	2367,90
657,44	2379,30
657,89	2377,10
658,35	2364,60
658,80	2369,00
659,25	2362,80
659,70	2418,20
660,15	2367,30
660,60	2380,10
661,06	2370,60
661,51	2362,40
661,96	2370,00
662,41	2360,50
662,86	2353,10
663,31	2376,00
663,77	2363,80
664,22	2367,30
664,67	2369,90
665,12	2357,90
665,57	2372,80
666,02	2361,30
666,47	2372,80
666,93	2372,60
667,38	2402,70
667,83	2384,80
668,28	2364,00
668,73	2378,50
669,18	2360,00
669,63	2396,90
670,08	2353,50
670,53	2362,20
670,99	2386,10
671,44	2374,60
671,89	2389,70
672,34	2403,10
672,79	2370,10
673,24	2373,20
673,69	2387,30
674,14	2408,00
674,59	2369,00
675,04	2377,90
675,49	2356,50
675,95	2361,20
676,40	2374,10
676,85	2370,50
677,30	2367,60
677,75	2360,80
678,20	2400,20
678,65	2367,50
679,10	2369,00
679,55	2368,80
680,00	2360,80
680,45	2368,50
680,90	2365,00
681,35	2352,80
681,80	2348,70
682,25	2363,30
682,70	2364,10
683,15	2372,40
683,60	2371,70
684,05	2366,00
684,50	2382,70
684,95	2372,20
685,40	2374,50
685,85	2375,70
686,30	2365,70
686,75	2359,60
687,20	2371,30
687,65	2368,70
688,10	2370,60
688,55	2368,10
689,00	2404,20
689,45	2377,00
689,90	2356,00
690,35	2371,00
690,80	2368,60
691,25	2353,30
691,70	2368,60
692,15	2356,00
692,60	2373,50
693,05	2367,00
693,50	2369,60
693,95	2374,00
694,40	2364,10
694,85	2374,10
695,30	2423,90
695,75	2371,30
696,20	2373,40
696,65	2394,30
697,10	2367,20
697,55	2366,40
698,00	2372,00
698,45	2361,30
698,90	2374,30
699,34	2379,40
699,79	2362,80
700,24	2365,80
700,69	2380,50
701,14	2380,20
701,59	2415,30
702,04	2359,00
702,49	2388,10
702,94	2363,30
703,39	2369,10
703,84	2368,50
704,28	2365,40
704,73	2364,90
705,18	2379,60
705,63	2380,40
706,08	2378,20
706,53	2360,00
706,98	2372,70
707,43	2370,50
707,87	2367,90
708,32	2373,50
708,77	2380,60
709,22	2375,50
709,67	2368,00
710,12	2367,70
710,57	2368,90
711,01	2367,60
711,46	2372,00
711,91	2367,90
712,36	2371,60
712,81	2361,90
713,26	2396,70
713,71	2367,60
714,15	2371,40
714,60	2384,30
715,05	2379,50
715,50	2371,50
715,95	2367,30
716,39	2366,40
716,84	2368,00
717,29	2359,20
717,74	2356,90
718,19	2375,00
718,63	2385,70
719,08	2364,00
719,53	2359,70
719,98	2371,70
720,43	2361,80
720,87	2362,40
721,32	2369,60
721,77	2366,30
722,22	2373,70
722,67	2367,50
723,11	2358,70
723,56	2358,40
724,01	2371,40
724,46	2353,70
724,90	2377,40
725,35	2360,90
725,80	2364,10
726,25	2373,20
726,69	2365,90
727,14	2391,10
727,59	2358,90
728,04	2386,20
728,48	2379,80
728,93	2369,80
729,38	2378,50
729,83	2363,20
730,27	2376,70
730,72	2360,70
731,17	2367,50
731,61	2374,90
732,06	2373,00
732,51	2370,90
732,96	2359,80
733,40	2379,40
733,85	2376,20
734,30	2361,70
734,74	2380,40
735,19	2378,20
735,64	2370,20
736,09	2401,90
736,53	2360,00
736,98	2369,50
737,43	2376,00
737,87	2378,20
738,32	2367,40
738,77	2365,20
739,21	2371,00
739,66	2357,10
740,11	2386,00
740,55	2380,10
741,00	2358,10
741,45	2379,40
741,89	2375,20
742,34	2366,30
742,79	2375,00
743,23	2357,90
743,68	2361,80
744,12	2367,60
744,57	2383,50
745,02	2376,90
745,46	2375,70
745,91	2383,30
746,36	2387,00
746,80	2348,20
747,25	2359,10
747,69	2357,90
748,14	2370,80
748,59	2369,50
749,03	2364,40
749,48	2369,70
749,92	2402,20
750,37	2371,60
750,82	2366,30
751,26	2353,10
751,71	2365,10
752,15	2364,70
752,60	2372,50
753,05	2391,30
753,49	2361,40
753,94	2365,60
754,38	2359,60
754,83	2362,30
755,27	2360,50
755,72	2366,20
756,17	2368,80
756,61	2382,10
757,06	2364,60
757,50	2383,80
757,95	2372,30
758,39	2365,00
758,84	2366,30
759,28	2364,00
759,73	2361,50
760,17	2364,10
760,62	2375,50
761,07	2369,00
761,51	2377,20
761,96	2383,00
762,40	2365,40
762,85	2359,70
763,29	2368,60
763,74	2375,10
764,18	2370,80
764,63	2359,70
765,07	2363,70
765,52	2373,20
765,96	2358,60
766,41	2356,60
766,85	2367,30
767,30	2368,10
767,74	2370,80
768,19	2372,20
768,63	2376,40
769,07	2368,90
769,52	2395,00
769,96	2359,70
770,41	2373,20
770,85	2361,90
771,30	2357,40
771,74	2377,80
772,19	2372,20
772,63	2368,90
773,08	2357,70
773,52	2365,00
773,97	2363,00
774,41	2353,80
774,85	2368,70
775,30	2360,90
775,74	2367,70
776,19	2371,10
776,63	2362,60
777,08	2368,30
777,52	2364,60
777,96	2372,70
778,41	2379,60
778,85	2366,20
779,30	2370,60
779,74	2402,90
780,18	2381,80
780,63	2367,10
781,07	2383,40
781,52	2372,50
781,96	2362,10
782,40	2372,40
782,85	2357,80
783,29	2369,50
783,74	2377,40
784,18	2376,30
784,62	2369,70
785,07	2372,30
785,51	2367,40
785,95	2359,50
786,40	2373,80
786,84	2380,70
787,28	2378,60
787,73	2360,00
788,17	2360,30
788,61	2373,60
789,06	2362,90
789,50	2369,00
789,94	2365,20
790,39	2373,80
790,83	2359,10
791,27	2362,70
791,72	2381,50
792,16	2364,80
792,60	2370,40
793,05	2363,80
793,49	2414,80
793,93	2379,10
794,38	2372,40
794,82	2367,60
795,26	2367,50
795,71	2358,00
796,15	2372,40
796,59	2366,50
797,03	2369,30
797,48	2366,60
797,92	2359,30
798,36	2365,70
798,81	2385,00
799,25	2375,40
799,69	2363,90
800,13	2388,40
800,58	2374,70
801,02	2362,50
801,46	2373,30
801,90	2373,90
802,35	2360,50
802,79	2387,20
803,23	2388,00
803,67	2380,40
804,12	2371,00
804,56	2371,10
805,00	2364,60
805,44	2392,70
805,89	2388,60
806,33	2390,70
806,77	2378,00
807,21	2391,90
807,66	2369,90
808,10	2367,60
808,54	2355,90
808,98	2381,20
809,42	2373,30
809,87	2365,00
810,31	2360,10
810,75	2374,30
811,19	2382,10
811,63	2409,10
812,08	2366,50
812,52	2358,40
812,96	2378,80
813,40	2390,50
813,84	2378,60
814,28	2370,20
814,73	2387,10
815,17	2379,00
815,61	2370,50
816,05	2365,40
816,49	2361,10
816,93	2366,80
817,38	2380,30
817,82	2372,00
818,26	2377,90
818,70	2368,80
819,14	2376,00
819,58	2384,60
820,03	2362,50
820,47	2376,90
820,91	2364,80
821,35	2375,80
821,79	2361,30
822,23	2390,80
822,67	2366,60
823,11	2373,10
823,55	2373,20
824,00	2355,30
824,44	2373,70
824,88	2371,60
825,32	2372,40
825,76	2372,90
826,20	2360,20
826,64	2370,30
827,08	2355,60
827,52	2368,40
827,96	2382,70
828,41	2381,90
828,85	2361,20
829,29	2386,90
829,73	2380,20
830,17	2362,80
830,61	2389,20
831,05	2365,00
831,49	2402,50
831,93	2383,00
832,37	2378,00
832,81	2357,90
833,25	2367,00
833,69	2370,40
834,13	2381,60
834,57	2379,20
835,01	2365,80
835,45	2362,50
835,89	2380,50
836,33	2370,40
836,77	2374,20
837,22	2367,30
837,66	2379,30
838,10	2366,80
838,54	2370,30
838,98	2374,40
839,42	2367,20
839,86	2388,50
840,30	2396,90
840,74	2374,70
841,18	2381,40
841,62	2355,30
842,06	2363,60
842,50	2356,50
842,94	2370,00
843,37	2376,90
843,81	2372,80
844,25	2375,80
844,69	2369,50
845,13	2361,90
845,57	2376,00
846,01	2363,60
846,45	2380,60
846,89	2367,70
847,33	2359,80
847,77	2375,50
848,21	2367,00
848,65	2370,40
849,09	2366,10
849,53	2380,00
849,97	2383,60
850,41	2378,20
850,85	2368,80
851,29	2380,50
851,73	2363,20
852,16	2379,80
852,60	2381,80
853,04	2364,70
853,48	2366,90
853,92	2378,10
854,36	2358,20
854,80	2377,80
855,24	2358,40
855,68	2366,90
856,12	2381,00
856,55	2389,70
856,99	2372,10
857,43	2371,50
857,87	2373,30
858,31	2363,30
858,75	2387,50
859,19	2352,20
859,63	2363,60
860,06	2367,60
860,50	2369,60
860,94	2374,80
861,38	2382,40
861,82	2364,00
862,26	2368,40
862,70	2379,60
863,13	2361,80
863,57	2365,60
864,01	2378,40
864,45	2363,30
864,89	2373,60
865,33	2369,90
865,76	2354,40
866,20	2367,60
866,64	2358,30
867,08	2372,30
867,52	2361,50
867,96	2374,80
868,39	2370,20
868,83	2362,70
869,27	2381,70
869,71	2366,30
870,15	2387,80
870,58	2401,80
871,02	2360,30
871,46	2364,80
871,90	2373,30
872,34	2363,00
872,77	2373,30
873,21	2369,20
873,65	2367,80
874,09	2377,80
874,52	2380,40
874,96	2371,10
875,40	2362,50
875,84	2382,10
876,27	2352,40
876,71	2372,20
877,15	2370,10
877,59	2370,70
878,02	2370,90
878,46	2370,60
878,90	2374,50
879,34	2370,80
879,77	2390,90
880,21	2364,20
880,65	2362,70
881,09	2369,40
881,52	2369,40
881,96	2379,50
882,40	2370,50
882,83	2367,50
883,27	2366,50
883,71	2368,70
884,14	2364,30
884,58	2380,60
885,02	2375,30
885,46	2375,20
885,89	2381,00
886,33	2365,90
886,77	2361,70
887,20	2384,30
887,64	2357,80
888,08	2362,60
888,51	2369,40
888,95	2359,30
889,39	2413,00
889,82	2363,20
890,26	2381,90
890,70	2362,90
891,13	2377,70
891,57	2372,50
892,01	2357,00
892,44	2369,00
892,88	2368,00
893,31	2357,90
893,75	2368,60
894,19	2377,50
894,62	2369,40
895,06	2378,70
895,50	2367,60
895,93	2362,80
896,37	2372,50
896,80	2373,10
897,24	2364,60
897,68	2365,40
898,11	2364,30
898,55	2374,90
898,98	2379,00
899,42	2364,50
899,86	2365,20
900,29	2364,90
900,73	2375,50
901,16	2373,90
901,60	2366,60
902,04	2396,50
902,47	2391,50
902,91	2364,70
903,34	2367,60
903,78	2387,00
904,21	2361,30
904,65	2373,70
905,09	2360,70
905,52	2367,10
905,96	2357,60
906,39	2380,60
906,83	2364,10
907,26	2380,50
907,70	2373,00
908,13	2373,00
908,57	2380,00
909,00	2385,00
909,44	2373,20
909,87	2358,00
910,31	2377,50
910,74	2374,30
911,18	2366,30
911,62	2363,40
912,05	2366,00
912,49	2374,70
912,92	2364,70
913,36	2377,60
913,79	2372,20
914,22	2365,90
914,66	2360,70
915,09	2360,00
915,53	2363,80
915,96	2365,80
916,40	2376,50
916,83	2366,80
917,27	2378,10
917,70	2366,20
918,14	2377,40
918,57	2363,50
919,01	2369,20
919,44	2370,50
919,88	2376,60
920,31	2381,80
920,75	2371,90
921,18	2390,10
921,61	2372,30
922,05	2365,70
922,48	2366,20
922,92	2365,30
923,35	2372,40
923,79	2387,70
924,22	2376,30
924,65	2362,40
925,09	2378,50
925,52	2361,90
925,96	2381,20
926,39	2396,70
926,82	2368,10
927,26	2378,70
927,69	2359,70
928,13	2393,60
928,56	2371,60
928,99	2360,00
929,43	2377,80
929,86	2361,60
930,30	2378,20
930,73	2378,20
931,16	2365,10
931,60	2377,50
932,03	2357,80
932,46	2387,90
932,90	2383,10
933,33	2404,90
933,76	2366,90
934,20	2380,90
934,63	2379,50
935,07	2381,30
935,50	2374,90
935,93	2360,60
936,37	2371,20
936,80	2362,90
937,23	2376,90
937,67	2369,60
938,10	2376,00
938,53	2368,20
938,96	2366,50
939,40	2375,00
939,83	2364,10
940,26	2368,90
940,70	2386,00
941,13	2397,30
941,56	2366,60
942,00	2381,10
942,43	2364,70
942,86	2367,40
943,29	2378,00
943,73	2359,10
944,16	2356,50
944,59	2374,10
945,03	2377,50
945,46	2376,90
945,89	2373,40
946,32	2373,90
946,76	2379,00
947,19	2385,40
947,62	2368,40
948,05	2374,10
948,49	2378,40
948,92	2358,50
949,35	2361,50
949,78	2368,10
950,22	2409,10
950,65	2387,10
951,08	2364,90
951,51	2364,90
951,95	2378,30
952,38	2357,60
952,81	2382,80
953,24	2374,00
953,67	2393,40
954,11	2358,20
954,54	2359,20
954,97	2369,00
955,40	2365,90
955,83	2365,40
956,27	2372,20
956,70	2365,20
957,13	2373,50
957,56	2409,20
957,99	2356,90
958,43	2377,60
958,86	2376,40
959,29	2362,60
959,72	2364,40
960,15	2364,60
960,58	2351,90
961,02	2362,50
961,45	2382,60
961,88	2378,40
962,31	2379,80
962,74	2378,50
963,17	2362,40
963,61	2372,20
964,04	2367,70
964,47	2373,40
964,90	2371,40
965,33	2371,50
965,76	2384,30
966,19	2372,50
966,62	2371,50
967,06	2380,10
967,49	2362,00
967,92	2365,10
968,35	2381,70
968,78	2421,30
969,21	2377,70
969,64	2375,00
970,07	2378,80
970,50	2359,50
970,93	2369,00
971,37	2378,90
971,80	2361,50
972,23	2371,70
972,66	2358,10
973,09	2367,00
973,52	2362,10
973,95	2370,30
974,38	2371,10
974,81	2378,90
975,24	2375,40
975,67	2363,80
976,10	2361,60
976,53	2370,10
976,96	2372,70
977,39	2362,20
977,82	2383,20
978,26	2369,40
978,69	2365,50
979,12	2365,70
979,55	2371,40
979,98	2381,50
980,41	2375,10
980,84	2367,90
981,27	2368,80
981,70	2380,50
982,13	2376,70
982,56	2365,50
982,99	2366,70
983,42	2372,20
983,85	2358,40
984,28	2379,50
984,71	2381,90
985,14	2362,20
985,57	2360,90
986,00	2371,10
986,43	2380,10
986,86	2367,70
987,29	2364,00
987,72	2376,70
988,15	2372,70
988,57	2375,20
989,00	2365,90
989,43	2373,30
989,86	2367,10
990,29	2369,80
990,72	2371,60
991,15	2373,20
991,58	2378,10
992,01	2392,90
992,44	2366,30
992,87	2365,50
993,30	2371,60
993,73	2366,20
994,16	2366,00
994,59	2373,10
995,02	2376,70
995,44	2373,10
995,87	2374,80
996,30	2359,30
996,73	2362,30
997,16	2351,70
997,59	2382,30
998,02	2376,40
998,45	2366,30
998,88	2369,30
999,31	2361,10
999,73	2385,50
1000,16	2374,80
1000,59	2370,90
1001,02	2386,60
1001,45	2367,00
1001,88	2370,70
1002,31	2381,40
1002,74	2377,00
1003,16	2371,50
1003,59	2370,80
1004,02	2371,40
1004,45	2360,80
1004,88	2374,40
1005,31	2371,70
1005,73	2388,80
1006,16	2366,30
1006,59	2358,10
1007,02	2377,60
1007,45	2367,10
1007,88	2369,30
1008,30	2364,20
1008,73	2369,30
1009,16	2366,60
1009,59	2413,90
1010,02	2382,90
1010,44	2377,30
1010,87	2379,80
1011,30	2374,40
1011,73	2381,70
1012,16	2369,80
1012,58	2379,90
1013,01	2374,20
1013,44	2376,80
1013,87	2377,00
1014,30	2368,10
1014,72	2387,60
1015,15	2357,90
1015,58	2380,80
1016,01	2367,00
1016,43	2369,80
1016,86	2363,50
1017,29	2376,80
1017,72	2365,40
1018,14	2587,60
1018,57	2363,80
1019,00	2355,90
1019,43	2410,30
1019,85	2376,10
1020,28	2376,10
1020,71	2367,20
1021,14	2366,30
1021,56	2375,20
1021,99	2374,00
1022,42	2371,40
1022,84	2372,50
1023,27	2412,20
1023,70	2386,30
1024,13	2383,50
1024,55	2378,80
1024,98	2370,90
1025,41	2374,00
1025,83	2379,80
1026,26	2362,50
1026,69	2362,20
1027,11	2399,00
1027,54	2374,30
1027,97	2374,70
1028,39	2369,40
1028,82	2374,50
1029,25	2361,70
1029,67	2397,10
1030,10	2376,70
1030,53	2370,90
1030,95	2376,80
1031,38	2387,20
1031,81	2356,00
1032,23	2379,30
1032,66	2379,80
1033,09	2374,40
1033,51	2383,20
1033,94	2362,10
1034,37	2364,30
1034,79	2378,30
1035,22	2385,60
1035,64	2365,50
1036,07	2393,70
1036,50	2361,50
1036,92	2369,20
1037,35	2374,00
1037,77	2359,80
1038,20	2381,30
1038,63	2377,70
1039,05	2377,70
1039,48	2385,00
1039,90	2388,10
1040,33	2371,00
1040,76	2372,40
1041,18	2379,30
1041,61	2367,30
1042,03	2389,70
1042,46	2389,90
1042,88	2376,20
1043,31	2389,50
1043,74	2377,50
1044,16	2382,40
1044,59	2366,50
1045,01	2375,30
1045,44	2368,80
1045,86	2365,00
1046,29	2378,70
1046,71	2383,80
1047,14	2368,50
1047,56	2376,90
1047,99	2383,10
1048,42	2361,50
1048,84	2381,80
1049,27	2378,00
1049,69	2382,80
1050,12	2368,60
1050,54	2369,40
1050,97	2376,40
1051,39	2382,40
1051,82	2390,20
1052,24	2382,70
1052,67	2371,50
1053,09	2382,60
1053,52	2355,70
1053,94	2372,80
1054,37	2357,00
1054,79	2371,40
1055,22	2369,60
1055,64	2377,30
1056,06	2377,60
1056,49	2395,80
1056,91	2386,60
1057,34	2383,00
1057,76	2376,70
1058,19	2418,40
1058,61	2364,10
1059,04	2380,20
1059,46	2384,60
1059,89	2374,90
1060,31	2378,40
1060,73	2366,10
1061,16	2384,60
1061,58	2381,30
1062,01	2368,80
1062,43	2383,00
1062,86	2391,60
1063,28	2374,30
1063,70	2373,90
1064,13	2362,30
1064,55	2383,90
1064,98	2385,60
1065,40	2366,00
1065,82	2362,70
1066,25	2360,30
1066,67	2382,60
1067,10	2378,10
1067,52	2371,90
1067,94	2377,30
1068,37	2370,90
1068,79	2390,60
1069,21	2376,00
1069,64	2366,80
1070,06	2364,40
1070,48	2383,30
1070,91	2384,10
1071,33	2382,80
1071,76	2370,30
1072,18	2383,90
1072,60	2370,10
1073,03	2355,10
1073,45	2365,10
1073,87	2381,40
1074,30	2369,10
1074,72	2365,60
1075,14	2370,30
1075,57	2366,90
1075,99	2375,80
1076,41	2366,00
1076,84	2363,20
1077,26	2372,10
1077,68	2384,80
1078,10	2369,40
1078,53	2380,40
1078,95	2388,60
1079,37	2360,20
1079,80	2373,00
1080,22	2370,90
1080,64	2373,40
1081,06	2381,40
1081,49	2378,10
1081,91	2374,50
1082,33	2371,80
1082,76	2366,90
1083,18	2374,60
1083,60	2378,10
1084,02	2371,10
1084,45	2384,80
1084,87	2372,90
1085,29	2372,80
1085,71	2386,20
1086,14	2366,50
1086,56	2370,70
1086,98	2379,50
1087,40	2365,00
1087,83	2380,70
1088,25	2804,40
1088,67	2371,00
1089,09	2364,80
1089,51	2369,70
1089,94	2367,10
1090,36	2386,80
1090,78	2375,20
1091,20	2365,70
1091,62	2381,70
1092,05	2368,70
1092,47	2365,80
1092,89	2370,00
1093,31	2365,70
1093,73	2375,30
1094,16	2372,60
1094,58	2370,60
1095,00	2374,80
1095,42	2370,90
1095,84	2364,70
1096,26	2367,90
1096,69	2371,00
1097,11	2361,90
1097,53	2370,80
1097,95	2367,90
1098,37	2378,20
1098,79	2379,60
1099,22	2382,80
1099,64	2365,60
1100,06	2371,60
1100,48	2365,70
1100,90	2369,10
1101,32	2365,80
1101,74	2373,80
1102,16	2359,50
1102,59	2371,20
1103,01	2363,90
1103,43	2370,40
1103,85	2376,60
1104,27	2467,60
1104,69	2392,10
1105,11	2352,50
1105,53	2376,20
1105,95	2375,10
1106,38	2358,70
1106,80	2367,50
1107,22	2355,60
1107,64	2363,90
1108,06	2381,30
1108,48	2355,70
1108,90	2372,90
1109,32	2374,50
1109,74	2374,50
1110,16	2355,20
1110,58	2364,20
1111,00	2357,30
1111,42	2362,70
1111,84	2355,60
1112,26	2358,60
1112,68	2356,50
1113,11	2363,80
1113,53	2358,70
1113,95	2363,00
1114,37	2364,80
1114,79	2374,20
1115,21	2362,60
1115,63	2368,40
1116,05	2362,80
1116,47	2375,10
1116,89	2372,40
1117,31	2366,00
1117,73	2354,80
1118,15	2191,20
1118,57	2196,00
1118,99	2196,20
1119,41	2195,60
>>>>>End Processed Spectral Data<<<<<
