SpectraSuite Data File
++++++++++++++++++++++++++++++++++++
Date: Wed Feb 24 12:50:33 EET 2016
User: OO Maya
Dark Spectrum Present: No
Reference Spectrum Present: No
Number of Sampled Component Spectra: 1
Spectrometers: FLMS00673
Integration Time (usec): 700000 (FLMS00673)
Spectra Averaged: 6 (FLMS00673)
Boxcar Smoothing: 0 (FLMS00673)
Correct for Electrical Dark: No (FLMS00673)
Strobe/Lamp Enabled: No (FLMS00673)
Correct for Detector Non-linearity: No (FLMS00673)
Correct for Stray Light: No (FLMS00673)
Number of Pixels in Processed Spectrum: 2048
>>>>>Begin Processed Spectral Data<<<<<
188,41	2220,78
188,88	2220,78
189,35	2220,78
189,82	2164,61
190,28	2193,47
190,75	2201,66
191,22	2206,74
191,68	2195,42
192,15	2199,32
192,62	2311,28
193,08	2220,00
193,55	2280,07
194,02	2269,93
194,48	2290,21
194,95	2355,36
195,42	2322,59
195,88	2372,91
196,35	2361,99
196,82	2372,91
197,28	2445,47
197,75	2421,67
198,22	2413,87
198,68	2528,95
199,15	2646,76
199,61	3056,35
200,08	3124,62
200,55	3077,41
201,01	3098,09
201,48	3170,65
201,94	3135,15
202,41	3144,12
202,88	3169,87
203,34	3157,77
203,81	3586,09
204,27	3210,43
204,74	3250,22
205,20	3160,11
205,67	3185,86
206,13	3200,29
206,60	3199,90
207,06	3159,33
207,53	3167,52
208,00	3199,90
208,46	3233,45
208,93	3240,86
209,39	3244,37
209,86	3229,55
210,32	3252,17
210,78	3338,38
211,25	3180,40
211,71	3228,38
212,18	3152,70
212,64	3145,68
213,11	3251,78
213,57	3229,16
214,04	3175,72
214,50	3165,18
214,97	3377,00
215,43	3250,22
215,89	3183,52
216,36	3180,01
216,82	3170,65
217,29	3119,93
217,75	3164,40
218,22	3151,14
218,68	3206,53
219,14	3177,67
219,61	3189,37
220,07	3180,01
220,53	3186,64
221,00	3167,92
221,46	3148,02
221,93	3153,09
222,39	3161,28
222,85	3207,70
223,32	3153,48
223,78	3120,71
224,24	3291,18
224,71	3138,66
225,17	3135,93
225,63	3161,67
226,10	3146,85
226,56	3132,03
227,02	3123,84
227,48	3124,23
227,95	3109,01
228,41	3118,37
228,87	3116,03
229,34	3213,56
229,80	3115,25
230,26	3084,05
230,72	3185,86
231,19	3181,96
231,65	3105,11
232,11	3137,10
232,57	3107,06
233,04	3168,70
233,50	3173,38
233,96	3123,05
234,42	3180,01
234,88	3139,44
235,35	3157,77
235,81	3159,72
236,27	3118,76
236,73	3165,18
237,19	3176,50
237,66	3145,68
238,12	3156,99
238,58	3154,26
239,04	3132,81
239,50	3211,21
239,96	3180,79
240,43	3129,30
240,89	3186,64
241,35	3125,79
241,81	3125,40
242,27	3148,41
242,73	3135,54
243,19	3173,38
243,66	3149,19
244,12	3131,25
244,58	3192,10
245,04	3122,66
245,50	3121,88
245,96	3160,50
246,42	3172,60
246,88	3135,93
247,34	3270,12
247,80	3165,57
248,26	3280,26
248,72	3146,07
249,18	3188,98
249,65	3145,29
250,11	3158,16
250,57	3109,40
251,03	3124,23
251,49	3126,57
251,95	3141,78
252,41	3137,88
252,87	3121,10
253,33	3177,28
253,79	3150,36
254,25	3117,98
254,71	3156,60
255,17	3137,10
255,63	3155,04
256,09	3134,37
256,55	3175,33
257,01	3193,27
257,47	3194,44
257,92	3205,75
258,38	3203,41
258,84	3187,03
259,30	3121,49
259,76	3129,30
260,22	3167,13
260,68	3152,70
261,14	3136,32
261,60	3121,10
262,06	3146,85
262,52	3201,46
262,98	3184,69
263,43	3199,90
263,89	3144,12
264,35	3128,52
264,81	3152,31
265,27	3147,24
265,73	3132,03
266,19	3135,93
266,65	3146,46
267,10	3130,08
267,56	3117,59
268,02	3152,70
268,48	3111,35
268,94	3186,64
269,40	3176,89
269,85	3115,25
270,31	3140,61
270,77	3130,08
271,23	3133,20
271,69	3151,14
272,14	3232,67
272,60	3149,97
273,06	3156,99
273,52	3157,38
273,98	3114,86
274,43	3135,54
274,89	3127,74
275,35	3112,91
275,81	3235,79
276,26	3214,34
276,72	3105,11
277,18	3118,76
277,63	3256,86
278,09	3229,94
278,55	3142,56
279,01	3178,84
279,46	3163,62
279,92	3119,15
280,38	3105,89
280,83	3137,10
281,29	3145,68
281,75	3141,39
282,20	3164,01
282,66	3177,28
283,12	3115,64
283,57	3170,26
284,03	3113,69
284,49	3141,39
284,94	3169,87
285,40	3157,77
285,86	3199,90
286,31	3128,52
286,77	3133,98
287,23	3169,87
287,68	3157,77
288,14	3171,43
288,59	3146,07
289,05	3211,21
289,51	3208,87
289,96	3147,24
290,42	3196,78
290,87	3128,52
291,33	3115,25
291,78	3142,17
292,24	3107,06
292,70	3103,16
293,15	3144,12
293,61	3165,96
294,06	3193,66
294,52	3086,39
294,97	3110,96
295,43	3118,76
295,88	3119,15
296,34	3135,54
296,79	3144,51
297,25	3145,29
297,70	3145,29
298,16	3153,48
298,61	3166,35
299,07	3149,19
299,52	3195,61
299,98	3161,67
300,43	3304,45
300,89	3122,27
301,34	3113,69
301,80	3123,05
302,25	3162,45
302,71	3156,21
303,16	3102,38
303,61	3143,73
304,07	3221,36
304,52	3159,72
304,98	3134,37
305,43	3154,26
305,88	3141,78
306,34	3163,23
306,79	3180,79
307,25	3183,52
307,70	3121,10
308,15	3145,29
308,61	3108,23
309,06	3215,90
309,52	3157,38
309,97	3100,43
310,42	3164,40
310,88	3152,70
311,33	3162,45
311,78	3145,29
312,24	3156,21
312,69	3132,03
313,14	3128,91
313,60	3150,36
314,05	3124,23
314,50	3194,44
314,95	3132,42
315,41	3213,56
315,86	3229,94
316,31	3162,84
316,77	3091,85
317,22	3095,36
317,67	3066,88
318,12	3105,50
318,58	3125,01
319,03	3163,23
319,48	3135,93
319,93	3209,65
320,39	3128,52
320,84	3126,96
321,29	3129,69
321,74	3119,54
322,20	3108,62
322,65	3091,07
323,10	3124,62
323,55	3110,96
324,00	3131,64
324,46	3091,07
324,91	3084,05
325,36	3096,14
325,81	3130,47
326,26	3206,53
326,71	3095,75
327,17	3210,04
327,62	3117,59
328,07	3157,77
328,52	3167,52
328,97	3154,65
329,42	3113,69
329,87	3146,07
330,33	3103,94
330,78	3160,11
331,23	3162,45
331,68	3118,76
332,13	3141,39
332,58	3103,16
333,03	3105,50
333,48	3114,47
333,93	3143,34
334,38	3137,88
334,84	3102,38
335,29	3148,41
335,74	3112,52
336,19	3141,00
336,64	3090,68
337,09	3101,21
337,54	3133,20
337,99	3089,12
338,44	3126,57
338,89	3139,83
339,34	3131,25
339,79	3037,63
340,24	3053,62
340,69	3128,91
341,14	3186,25
341,59	3162,06
342,04	3112,91
342,49	3128,52
342,94	3093,41
343,39	3171,04
343,84	3133,59
344,29	3112,52
344,74	3129,69
345,19	3102,38
345,64	3099,26
346,09	3095,36
346,54	3129,30
346,99	3090,68
347,43	3151,92
347,88	3121,49
348,33	3141,39
348,78	3128,13
349,23	3127,74
349,68	3144,12
350,13	3100,82
350,58	3094,19
351,03	3125,79
351,48	3098,09
351,92	3102,38
352,37	3133,20
352,82	3090,29
353,27	3132,81
353,72	3139,83
354,17	3107,84
354,62	3135,54
355,06	3108,23
355,51	3095,75
355,96	3110,57
356,41	3071,95
356,86	3107,45
357,30	3067,27
357,75	3091,07
358,20	3090,29
358,65	3103,94
359,10	3219,02
359,54	3125,79
359,99	3118,37
360,44	3116,03
360,89	3105,50
361,34	3091,46
361,78	3084,44
362,23	3090,68
362,68	3110,57
363,13	3077,80
363,57	3086,00
364,02	3121,88
364,47	3169,48
364,91	3072,73
365,36	3072,73
365,81	3077,80
366,26	3061,81
366,70	3180,79
367,15	3071,95
367,60	3040,75
368,04	3097,31
368,49	3089,51
368,94	3120,71
369,38	3086,78
369,83	3070,39
370,28	3062,20
370,72	3066,10
371,17	3158,55
371,62	3086,00
372,06	3099,65
372,51	3147,63
372,96	3094,58
373,40	3084,05
373,85	3057,91
374,29	3085,22
374,74	3125,40
375,19	3043,48
375,63	3075,07
376,08	3087,17
376,52	3060,25
376,97	3195,22
377,42	3114,47
377,86	3074,68
378,31	3085,22
378,75	3018,12
379,20	3081,32
379,64	3089,90
380,09	3097,31
380,53	3113,30
380,98	3096,53
381,43	3088,34
381,87	3130,86
382,32	3066,88
382,76	3080,93
383,21	3116,81
383,65	3077,80
384,10	3061,42
384,54	3082,49
384,99	3110,96
385,43	3075,46
385,88	3082,49
386,32	3137,49
386,76	3054,40
387,21	3153,48
387,65	3142,95
388,10	3139,44
388,54	3096,14
388,99	3130,47
389,43	3248,66
389,88	3097,70
390,32	3077,80
390,76	3089,12
391,21	3092,24
391,65	3120,32
392,10	3286,11
392,54	3085,22
392,98	3101,99
393,43	3090,29
393,87	3063,76
394,32	3043,48
394,76	3113,30
395,20	3075,46
395,65	3087,17
396,09	3111,35
396,53	3066,88
396,98	3106,67
397,42	3076,24
397,86	3104,33
398,31	3069,61
398,75	3104,33
399,19	3071,56
399,64	3038,02
400,08	3078,97
400,52	3090,68
400,97	3073,12
401,41	3082,88
401,85	3112,52
402,30	3057,52
402,74	3078,97
403,18	3130,08
403,62	3114,86
404,07	3075,46
404,51	3085,22
404,95	3094,97
405,39	3077,02
405,84	3054,01
406,28	3110,57
406,72	3066,10
407,16	3169,87
407,61	3089,51
408,05	3068,05
408,49	3083,27
408,93	3116,03
409,37	3108,62
409,82	3126,57
410,26	3072,73
410,70	3105,89
411,14	3059,86
411,58	3113,69
412,02	3081,71
412,47	3127,74
412,91	3080,54
413,35	3091,46
413,79	3184,30
414,23	3119,54
414,67	3103,16
415,12	3159,72
415,56	3064,54
416,00	3130,08
416,44	3078,58
416,88	3117,20
417,32	3109,01
417,76	3117,20
418,20	3143,34
418,64	3063,76
419,08	3114,47
419,53	3104,72
419,97	3086,78
420,41	3075,07
420,85	3098,48
421,29	3147,63
421,73	3066,10
422,17	3078,58
422,61	3102,38
423,05	3070,39
423,49	3071,95
423,93	3089,51
424,37	3122,27
424,81	3172,60
425,25	3079,75
425,69	3085,22
426,13	3087,95
426,57	3110,96
427,01	3080,93
427,45	3111,74
427,89	3103,94
428,33	3088,73
428,77	3056,35
429,21	3100,82
429,65	3093,02
430,09	3071,17
430,53	3061,42
430,97	3112,13
431,41	3145,29
431,85	3157,77
432,29	3072,34
432,73	3113,30
433,16	3100,82
433,60	3149,97
434,04	3117,20
434,48	3144,12
434,92	3107,06
435,36	3093,80
435,80	3195,22
436,24	3092,63
436,68	3104,72
437,12	3125,01
437,55	3124,62
437,99	3133,98
438,43	3084,83
438,87	3122,27
439,31	3096,92
439,75	3102,77
440,18	3116,42
440,62	3108,62
441,06	3108,23
441,50	3134,37
441,94	3151,14
442,38	3108,23
442,81	3094,97
443,25	3067,27
443,69	3070,78
444,13	3097,70
444,57	3095,75
445,00	3120,71
445,44	3118,76
445,88	3147,63
446,32	3136,32
446,75	3116,03
447,19	3077,02
447,63	3184,30
448,07	3086,00
448,50	3127,74
448,94	3080,54
449,38	3115,25
449,82	3122,66
450,25	3094,19
450,69	3056,74
451,13	3214,34
451,56	3092,24
452,00	3158,16
452,44	3103,94
452,87	3091,46
453,31	3072,34
453,75	3077,41
454,18	3139,05
454,62	3107,45
455,06	3091,85
455,49	3132,81
455,93	3101,21
456,37	3167,92
456,80	3091,46
457,24	3075,07
457,68	3196,78
458,11	3103,55
458,55	3141,78
458,98	3132,03
459,42	3179,62
459,86	3135,93
460,29	3135,54
460,73	3163,23
461,16	3102,38
461,60	3166,74
462,04	3186,64
462,47	3084,05
462,91	3136,32
463,34	3085,61
463,78	3158,94
464,21	3109,79
464,65	3160,89
465,08	3084,83
465,52	3123,05
465,96	3160,89
466,39	3172,99
466,83	3164,79
467,26	3209,65
467,70	3125,79
468,13	3111,74
468,57	3130,86
469,00	3191,32
469,44	3106,28
469,87	3153,09
470,31	3126,96
470,74	3161,28
471,17	3183,91
471,61	3115,25
472,04	3164,01
472,48	3190,15
472,91	3144,51
473,35	3134,76
473,78	3192,49
474,22	3180,40
474,65	3212,00
475,08	3205,75
475,52	3144,12
475,95	3161,28
476,39	3146,07
476,82	3143,73
477,25	3168,70
477,69	3168,31
478,12	3198,73
478,56	3261,15
478,99	3238,52
479,42	3184,30
479,86	3212,39
480,29	3154,65
480,72	3151,53
481,16	3151,92
481,59	3204,58
482,02	3183,91
482,46	3199,12
482,89	3165,57
483,32	3211,22
483,76	3180,01
484,19	3219,02
484,62	3171,43
485,06	3269,34
485,49	3148,02
485,92	3196,00
486,35	3256,08
486,79	3182,74
487,22	3348,92
487,65	3333,31
488,09	3190,54
488,52	3208,09
488,95	3206,92
489,38	3237,35
489,82	3259,20
490,25	3215,12
490,68	3219,41
491,11	3210,43
491,54	3201,46
491,98	3189,76
492,41	3229,94
492,84	3233,06
493,27	3209,26
493,70	3265,44
494,14	3248,66
494,57	3256,86
495,00	3227,60
495,43	3263,10
495,86	3232,28
496,30	3305,23
496,73	3244,76
497,16	3236,18
497,59	3228,38
498,02	3237,35
498,45	3228,38
498,88	3244,76
499,32	3239,69
499,75	3191,32
500,18	3254,90
500,61	3206,92
501,04	3337,21
501,47	3212,78
501,90	3243,98
502,33	3257,64
502,76	3262,71
503,19	3290,40
503,62	3219,02
504,06	3256,47
504,49	3258,42
504,92	3247,49
505,35	3231,89
505,78	3247,49
506,21	3267,78
506,64	3237,74
507,07	3237,35
507,50	3270,12
507,93	3217,46
508,36	3255,69
508,79	3235,40
509,22	3230,33
509,65	3238,52
510,08	3286,89
510,51	3290,79
510,94	3286,11
511,37	3337,21
511,80	3245,54
512,23	3219,02
512,66	3237,35
513,09	3264,66
513,52	3307,96
513,95	3325,12
514,38	3302,11
514,81	3279,48
515,23	3261,93
515,66	3318,88
516,09	3323,17
516,52	3272,07
516,95	3272,07
517,38	3262,71
517,81	3215,51
518,24	3316,93
518,67	3313,81
519,10	3286,89
519,53	3261,93
519,95	3268,56
520,38	3282,99
520,81	3297,42
521,24	3271,29
521,67	3261,93
522,10	3223,70
522,53	3281,82
522,95	3275,19
523,38	3338,77
523,81	3281,43
524,24	3316,15
524,67	3336,04
525,09	3256,08
525,52	3276,75
525,95	3290,01
526,38	3278,31
526,81	3306,01
527,23	3334,09
527,66	3341,89
528,09	3329,41
528,52	3319,27
528,95	3295,08
529,37	3286,11
529,80	3279,87
530,23	3300,55
530,66	3301,33
531,08	3295,47
531,51	3322,39
531,94	3300,55
532,37	3290,01
532,79	3254,51
533,22	3289,62
533,65	3310,69
534,07	3302,89
534,50	3268,56
534,93	3330,97
535,35	3285,33
535,78	3294,30
536,21	3316,15
536,63	3350,48
537,06	3301,33
537,49	3307,18
537,91	3266,61
538,34	3268,95
538,77	3342,68
539,19	3274,80
539,62	3265,05
540,05	3335,65
540,47	3304,84
540,90	3290,79
541,33	3300,94
541,75	3279,87
542,18	3314,98
542,60	3330,58
543,03	3311,47
543,45	3290,01
543,88	3345,41
544,31	3325,12
544,73	3297,42
545,16	3334,48
545,58	3263,49
546,01	3260,76
546,43	3314,98
546,86	3289,62
547,29	3268,56
547,71	3337,21
548,14	3303,67
548,56	3312,25
548,99	3254,90
549,41	3285,33
549,84	3263,10
550,26	3361,79
550,69	3296,64
551,11	3312,64
551,54	3350,09
551,96	3291,57
552,39	3270,12
552,81	3308,74
553,24	3334,48
553,66	3303,67
554,08	3262,32
554,51	3322,00
554,93	3336,82
555,36	3281,43
555,78	3285,33
556,21	3274,80
556,63	3323,56
557,06	3309,13
557,48	3249,44
557,90	3273,63
558,33	3370,76
558,75	3274,80
559,18	3375,05
559,60	3406,26
560,02	3313,81
560,45	3289,62
560,87	3330,58
561,29	3330,19
561,72	3258,42
562,14	3260,37
562,57	3279,09
562,99	3285,33
563,41	3320,05
563,84	3314,20
564,26	3321,61
564,68	3262,32
565,11	3350,09
565,53	3306,79
565,95	3328,24
566,37	3281,04
566,80	3275,58
567,22	3266,61
567,64	3297,81
568,07	3278,70
568,49	3474,14
568,91	3327,07
569,33	3379,73
569,76	3270,12
570,18	3308,74
570,60	3310,30
571,03	3357,11
571,45	3337,60
571,87	3331,75
572,29	3320,83
572,71	3342,68
573,14	3290,79
573,56	3289,62
573,98	3297,81
574,40	3358,67
574,83	3281,43
575,25	3258,42
575,67	3309,91
576,09	3286,89
576,51	3282,21
576,93	3302,11
577,36	3329,02
577,78	3334,48
578,20	3327,85
578,62	3273,24
579,04	3300,55
579,46	3310,69
579,89	3328,24
580,31	3304,45
580,73	3279,09
581,15	3329,41
581,57	3255,30
581,99	3310,69
582,41	3300,55
582,83	3380,51
583,25	3275,58
583,68	3314,98
584,10	3305,23
584,52	3278,70
584,94	3280,26
585,36	3280,65
585,78	3297,42
586,20	3282,21
586,62	3310,30
587,04	3307,18
587,46	3316,54
587,88	3302,11
588,30	3298,99
588,72	3306,40
589,14	3288,06
589,56	3260,37
589,98	3303,67
590,40	3307,57
590,82	3281,43
591,24	3266,22
591,66	3304,84
592,08	3288,06
592,50	3346,97
592,92	3272,46
593,34	3311,47
593,76	3311,08
594,18	3305,23
594,60	3310,69
595,02	3325,90
595,44	3318,49
595,86	3324,34
596,28	3330,19
596,70	3333,70
597,12	3295,08
597,54	3309,91
597,96	3298,60
598,37	3317,32
598,79	3305,23
599,21	3339,55
599,63	3373,49
600,05	3318,10
600,47	3346,97
600,89	3320,83
601,31	3327,85
601,73	3284,94
602,14	3431,62
602,56	3387,54
602,98	3397,68
603,40	3362,57
603,82	3325,12
604,24	3303,28
604,65	3348,53
605,07	3381,68
605,49	3313,03
605,91	3355,16
606,33	3407,43
606,75	3347,75
607,16	3349,31
607,58	3337,21
608,00	3316,54
608,42	3349,70
608,83	3333,70
609,25	3337,21
609,67	3351,26
610,09	3321,61
610,51	3256,08
610,92	3308,35
611,34	3322,78
611,76	3323,17
612,17	3292,74
612,59	3320,05
613,01	3332,14
613,43	3329,02
613,84	3338,38
614,26	3270,90
614,68	3338,77
615,10	3324,73
615,51	3336,82
615,93	3338,77
616,35	3330,97
616,76	3329,02
617,18	3294,69
617,60	3277,14
618,01	3298,20
618,43	3327,07
618,85	3305,62
619,26	3267,78
619,68	3321,22
620,09	3336,82
620,51	3330,97
620,93	3328,24
621,34	3292,35
621,76	3306,01
622,18	3324,73
622,59	3352,04
623,01	3382,46
623,42	3365,30
623,84	3312,25
624,26	3285,72
624,67	3339,55
625,09	3363,35
625,50	3330,58
625,92	3293,13
626,33	3322,39
626,75	3321,22
627,17	3366,86
627,58	3363,74
628,00	3311,47
628,41	3295,47
628,83	3313,81
629,24	3353,99
629,66	3332,92
630,07	3353,99
630,49	3323,56
630,90	3372,71
631,32	3344,24
631,73	3292,74
632,15	3338,38
632,56	3279,09
632,98	3293,91
633,39	3304,84
633,81	3258,03
634,22	3295,08
634,63	3306,79
635,05	3271,68
635,46	3324,73
635,88	3301,72
636,29	3243,59
636,71	3293,13
637,12	3351,26
637,54	3299,77
637,95	3300,94
638,36	3353,60
638,78	3276,75
639,19	3262,32
639,61	3261,93
640,02	3254,90
640,43	3289,62
640,85	3291,18
641,26	3267,39
641,67	3246,71
642,09	3408,21
642,50	3307,96
642,91	3318,10
643,33	3269,34
643,74	3338,77
644,15	3288,84
644,57	3311,08
644,98	3328,63
645,39	3301,72
645,81	3318,49
646,22	3274,02
646,63	3355,55
647,05	3282,21
647,46	3305,62
647,87	3279,48
648,29	3334,09
648,70	3330,97
649,11	3288,45
649,52	3243,20
649,94	3330,97
650,35	3268,95
650,76	3262,71
651,17	3297,81
651,59	3336,04
652,00	3302,89
652,41	3339,94
652,82	3346,58
653,24	3302,11
653,65	3322,39
654,06	3329,02
654,47	3301,33
654,88	3366,08
655,30	3320,44
655,71	3312,64
656,12	3270,12
656,53	3283,38
656,94	3289,62
657,35	3349,70
657,77	3345,80
658,18	3318,49
658,59	3374,66
659,00	3314,20
659,41	3329,80
659,82	3357,89
660,23	3300,55
660,65	3339,16
661,06	3348,92
661,47	3349,31
661,88	3304,45
662,29	3316,54
662,70	3351,26
663,11	3314,59
663,52	3293,13
663,93	3335,26
664,34	3368,81
664,76	3338,77
665,17	3354,77
665,58	3345,02
665,99	3302,11
666,40	3300,16
666,81	3348,53
667,22	3387,54
667,63	3403,92
668,04	3341,11
668,45	3373,10
668,86	3366,86
669,27	3323,95
669,68	3407,82
670,09	3305,23
670,50	3362,96
670,91	3319,27
671,32	3374,66
671,73	3350,48
672,14	3379,73
672,55	3346,19
672,96	3383,24
673,37	3330,97
673,78	3345,02
674,19	3410,16
674,60	3391,05
675,01	3365,69
675,42	3411,72
675,82	3400,41
676,23	3413,67
676,64	3477,26
677,05	3428,49
677,46	3469,06
677,87	3407,43
678,28	3474,14
678,69	3370,76
679,10	3446,83
679,51	3513,14
679,91	3498,71
680,32	3462,43
680,73	3496,76
681,14	3497,93
681,55	3484,67
681,96	3545,91
682,37	3541,62
682,78	3540,84
683,18	3557,22
683,59	3581,02
684,00	3709,36
684,41	3647,33
684,82	3668,40
685,22	3749,93
685,63	3741,74
686,04	3755,00
686,45	3837,70
686,86	3935,61
687,26	3927,03
687,67	4011,68
688,08	4068,24
688,49	4136,51
688,90	4287,08
689,30	4401,77
689,71	4408,01
690,12	4572,63
690,53	4780,54
690,93	4899,52
691,34	5025,13
691,75	5245,14
692,15	5518,59
692,56	5797,12
692,97	6080,71
693,38	6342,46
693,78	6743,08
694,19	7083,24
694,60	7540,43
695,00	8045,98
695,41	8590,94
695,82	9269,69
696,22	9905,54
696,63	10696,25
697,04	11547,42
697,44	12473,10
697,85	13430,77
698,26	14610,01
698,66	15812,66
699,07	17132,72
699,48	18450,83
699,88	20040,45
700,29	21837,20
700,69	23454,90
701,10	25410,81
701,51	27378,42
701,91	29486,85
702,32	31921,79
702,72	34349,31
703,13	36460,87
703,54	39282,38
703,94	42014,96
704,35	44611,00
704,75	47559,30
705,16	49991,89
705,56	52632,02
705,97	54738,50
706,37	56724,44
706,78	58492,33
707,18	60084,28
707,59	61511,23
707,99	62742,74
708,40	63877,12
708,81	65165,20
709,21	65535,00
709,62	65535,00
710,02	65535,00
710,42	65535,00
710,83	65535,00
711,23	65535,00
711,64	65535,00
712,04	65535,00
712,45	65535,00
712,85	65535,00
713,26	65535,00
713,66	65535,00
714,07	65535,00
714,47	65535,00
714,87	65535,00
715,28	65535,00
715,68	65535,00
716,09	65535,00
716,49	65535,00
716,90	65535,00
717,30	65535,00
717,70	65535,00
718,11	65535,00
718,51	65535,00
718,91	65535,00
719,32	65535,00
719,72	65535,00
720,13	65535,00
720,53	65535,00
720,93	65535,00
721,34	65535,00
721,74	65535,00
722,14	65535,00
722,55	65535,00
722,95	65535,00
723,35	65535,00
723,76	65535,00
724,16	65535,00
724,56	65535,00
724,97	65535,00
725,37	65535,00
725,77	65535,00
726,17	65535,00
726,58	65535,00
726,98	65535,00
727,38	65535,00
727,78	65535,00
728,19	65535,00
728,59	65535,00
728,99	65535,00
729,39	65535,00
729,80	65535,00
730,20	65535,00
730,60	65535,00
731,00	65535,00
731,41	65535,00
731,81	65535,00
732,21	65535,00
732,61	65535,00
733,01	65535,00
733,42	65535,00
733,82	65535,00
734,22	65535,00
734,62	65535,00
735,02	65535,00
735,42	65535,00
735,83	65535,00
736,23	65535,00
736,63	65535,00
737,03	65535,00
737,43	65535,00
737,83	65535,00
738,23	65535,00
738,64	65535,00
739,04	65535,00
739,44	65535,00
739,84	65535,00
740,24	65535,00
740,64	65535,00
741,04	65535,00
741,44	65535,00
741,84	65535,00
742,24	65535,00
742,64	65535,00
743,05	65535,00
743,45	65535,00
743,85	65535,00
744,25	65535,00
744,65	65535,00
745,05	65535,00
745,45	65535,00
745,85	65535,00
746,25	65535,00
746,65	65535,00
747,05	65535,00
747,45	65535,00
747,85	65535,00
748,25	65535,00
748,65	65535,00
749,05	65535,00
749,45	65535,00
749,85	65535,00
750,25	65535,00
750,65	65535,00
751,05	65535,00
751,45	65535,00
751,85	65535,00
752,25	65535,00
752,64	65535,00
753,04	65535,00
753,44	65535,00
753,84	65535,00
754,24	65535,00
754,64	65535,00
755,04	65535,00
755,44	65535,00
755,84	65535,00
756,24	65535,00
756,64	65535,00
757,03	65535,00
757,43	65535,00
757,83	65535,00
758,23	65535,00
758,63	65535,00
759,03	65535,00
759,43	65535,00
759,82	65535,00
760,22	65535,00
760,62	65535,00
761,02	65535,00
761,42	65535,00
761,82	65535,00
762,21	65535,00
762,61	65535,00
763,01	65535,00
763,41	65535,00
763,81	65535,00
764,20	65535,00
764,60	65535,00
765,00	65535,00
765,40	65535,00
765,79	65535,00
766,19	65535,00
766,59	65535,00
766,99	65535,00
767,38	65535,00
767,78	65535,00
768,18	65535,00
768,58	65535,00
768,97	65535,00
769,37	65535,00
769,77	65535,00
770,16	65535,00
770,56	65535,00
770,96	65535,00
771,36	65535,00
771,75	65535,00
772,15	65535,00
772,55	65535,00
772,94	65535,00
773,34	65535,00
773,74	65535,00
774,13	65535,00
774,53	65535,00
774,93	65535,00
775,32	65535,00
775,72	65535,00
776,11	65535,00
776,51	65535,00
776,91	65535,00
777,30	65535,00
777,70	65535,00
778,10	65535,00
778,49	65535,00
778,89	65535,00
779,28	65535,00
779,68	65535,00
780,07	65535,00
780,47	65535,00
780,87	65535,00
781,26	65535,00
781,66	65535,00
782,05	65535,00
782,45	65535,00
782,84	65535,00
783,24	65535,00
783,63	65535,00
784,03	65535,00
784,42	65535,00
784,82	65535,00
785,21	65535,00
785,61	65535,00
786,00	65535,00
786,40	65535,00
786,79	65535,00
787,19	65535,00
787,58	65535,00
787,98	65535,00
788,37	65535,00
788,77	65535,00
789,16	65535,00
789,56	65535,00
789,95	65535,00
790,35	65535,00
790,74	65535,00
791,13	65535,00
791,53	65535,00
791,92	65535,00
792,32	65535,00
792,71	65535,00
793,10	65535,00
793,50	65535,00
793,89	65535,00
794,29	65535,00
794,68	65535,00
795,07	65535,00
795,47	65535,00
795,86	65535,00
796,26	65535,00
796,65	65535,00
797,04	65535,00
797,44	65535,00
797,83	65535,00
798,22	65535,00
798,62	65535,00
799,01	65535,00
799,40	65535,00
799,80	65535,00
800,19	65535,00
800,58	65535,00
800,97	65535,00
801,37	65535,00
801,76	65535,00
802,15	65535,00
802,55	65535,00
802,94	65535,00
803,33	65535,00
803,72	65535,00
804,12	65535,00
804,51	65535,00
804,90	65535,00
805,29	65535,00
805,69	65535,00
806,08	65535,00
806,47	65535,00
806,86	65535,00
807,26	65535,00
807,65	65535,00
808,04	65535,00
808,43	65535,00
808,82	65535,00
809,22	65535,00
809,61	65535,00
810,00	65535,00
810,39	65535,00
810,78	65535,00
811,17	65535,00
811,57	65535,00
811,96	65535,00
812,35	65535,00
812,74	65535,00
813,13	65535,00
813,52	65535,00
813,91	65535,00
814,30	65535,00
814,70	65535,00
815,09	65535,00
815,48	65535,00
815,87	65535,00
816,26	65535,00
816,65	65535,00
817,04	65535,00
817,43	65535,00
817,82	65535,00
818,21	65535,00
818,60	65535,00
819,00	65535,00
819,39	65535,00
819,78	65535,00
820,17	65535,00
820,56	65535,00
820,95	65535,00
821,34	65535,00
821,73	65535,00
822,12	65535,00
822,51	65535,00
822,90	65535,00
823,29	65535,00
823,68	65535,00
824,07	65535,00
824,46	65535,00
824,85	65535,00
825,24	65535,00
825,63	65535,00
826,02	65535,00
826,41	65535,00
826,80	65535,00
827,18	65535,00
827,57	65535,00
827,96	65535,00
828,35	65535,00
828,74	65535,00
829,13	65535,00
829,52	65535,00
829,91	65535,00
830,30	65535,00
830,69	65535,00
831,08	65535,00
831,47	65535,00
831,85	65535,00
832,24	65535,00
832,63	65535,00
833,02	65535,00
833,41	65535,00
833,80	65535,00
834,19	65535,00
834,57	65535,00
834,96	65535,00
835,35	65535,00
835,74	65535,00
836,13	65535,00
836,52	65535,00
836,90	65535,00
837,29	65535,00
837,68	65535,00
838,07	65535,00
838,46	65535,00
838,84	65535,00
839,23	65535,00
839,62	65535,00
840,01	65535,00
840,40	65513,16
840,78	65435,92
841,17	65309,92
841,56	65142,18
841,95	65174,17
842,33	64997,46
842,72	65016,96
843,11	64820,36
843,50	64704,11
843,88	64741,95
844,27	64665,88
844,66	64442,36
845,04	64396,33
845,43	64200,50
845,82	64191,92
846,20	63995,32
846,59	63828,36
846,98	63661,79
847,37	63671,93
847,75	63438,66
848,14	63494,83
848,53	63251,42
848,91	63135,17
849,30	63010,34
849,68	63031,02
850,07	62736,11
850,46	62714,26
850,84	62675,26
851,23	62259,42
851,62	62218,85
852,00	62102,99
852,39	62093,24
852,77	61868,94
853,16	61906,00
853,55	61803,41
853,93	61498,75
854,32	61370,41
854,70	61244,02
855,09	61068,48
855,47	60982,27
855,86	60918,29
856,25	60766,16
856,63	60642,50
857,02	60466,18
857,40	60441,21
857,79	60129,14
858,17	60068,68
858,56	59998,46
858,94	59701,99
859,33	59531,53
859,71	59521,38
860,10	59425,42
860,48	59188,64
860,87	58979,94
861,25	58994,37
861,64	58779,82
862,02	58572,30
862,41	58456,83
862,79	58258,66
863,18	58187,28
863,56	58009,01
863,95	57846,73
864,33	57757,01
864,71	57505,01
865,10	57328,69
865,48	57228,83
865,87	56997,90
866,25	56908,57
866,64	56571,92
867,02	56313,68
867,40	56171,69
867,79	56110,05
868,17	55870,54
868,56	55691,88
868,94	55641,17
869,32	55251,47
869,71	55395,41
870,09	55115,72
870,47	54856,31
870,86	54683,50
871,24	54483,77
871,62	54229,04
872,01	53975,09
872,39	53834,66
872,77	53867,04
873,16	53453,93
873,54	53335,35
873,92	52935,90
874,31	52779,08
874,69	52593,79
875,07	52355,44
875,46	52247,78
875,84	52009,43
876,22	51776,55
876,60	51643,92
876,99	51343,55
877,37	50962,82
877,75	50858,67
878,14	50596,14
878,52	49977,07
878,90	50081,61
879,28	49765,64
879,66	49472,68
880,05	49324,45
880,43	49041,24
880,81	48920,32
881,19	48293,05
881,58	48119,07
881,96	47999,71
882,34	47681,78
882,72	47108,74
883,10	46862,60
883,49	46647,66
883,87	46344,95
884,25	46249,77
884,63	45503,92
885,01	45404,05
885,39	45418,49
885,78	45180,92
886,16	44846,61
886,54	44651,18
886,92	44678,88
887,30	44513,87
887,68	44289,57
888,06	44376,17
888,44	44568,09
888,83	44430,78
889,21	44496,70
889,59	44912,54
889,97	44923,46
890,35	45211,35
890,73	45362,31
891,11	45833,15
891,49	46307,89
891,87	46405,41
892,25	47003,42
892,63	47376,73
893,01	47715,72
893,39	48431,93
893,77	48963,62
894,16	49323,67
894,54	49713,37
894,92	50336,73
895,30	50901,58
895,68	51143,44
896,06	51618,56
896,44	52099,54
896,82	52241,93
897,20	52392,89
897,58	52668,69
897,96	52394,06
898,34	52802,88
898,72	52616,80
899,10	52540,74
899,47	52338,28
899,85	52184,97
900,23	51673,57
900,61	51418,45
900,99	51169,57
901,37	50570,00
901,75	49864,33
902,13	49287,00
902,51	48675,34
902,89	47920,52
903,27	47387,27
903,65	46730,75
904,03	46138,20
904,40	45457,10
904,78	44891,08
905,16	44047,32
905,54	43596,77
905,92	42862,62
906,30	42237,31
906,68	41582,35
907,06	40826,35
907,43	40447,58
907,81	39815,24
908,19	39372,10
908,57	38707,39
908,95	38227,97
909,33	37803,16
909,70	37502,01
910,08	36957,84
910,46	36492,07
910,84	35996,27
911,22	35740,37
911,59	35265,63
911,97	34751,88
912,35	34564,64
912,73	34255,30
913,11	33819,96
913,48	33388,52
913,86	33040,95
914,24	32718,35
914,62	32464,79
914,99	32196,41
915,37	31634,68
915,75	31516,87
916,13	31159,55
916,50	31032,38
916,88	30618,50
917,26	30369,62
917,63	29959,64
918,01	29692,82
918,39	29358,90
918,77	29172,05
919,14	28990,66
919,52	28828,77
919,90	28576,38
920,27	28038,06
920,65	28024,79
921,03	27624,56
921,40	27490,76
921,78	27273,87
922,16	27038,26
922,53	26836,58
922,91	26441,81
923,28	26255,74
923,66	26242,09
924,04	25706,88
924,41	25638,23
924,79	25404,17
925,17	25379,60
925,54	25105,76
925,92	24805,78
926,29	24640,77
926,67	24384,87
927,05	24253,02
927,42	24174,61
927,80	23871,51
928,17	23741,22
928,55	23563,73
928,92	23502,49
929,30	23283,65
929,67	23060,91
930,05	22917,36
930,43	22716,07
930,80	22636,49
931,18	22408,68
931,55	22228,07
931,93	21959,69
932,30	22016,64
932,68	21487,29
933,05	21407,32
933,43	21434,24
933,80	21058,19
934,18	20908,01
934,55	20999,29
934,92	20578,77
935,30	20534,69
935,67	20279,57
936,05	20213,65
936,42	19984,27
936,80	19796,25
937,17	19605,89
937,55	19387,83
937,92	19539,18
938,29	19160,41
938,67	18883,05
939,04	18704,00
939,42	18842,09
939,79	18489,06
940,16	18403,24
940,54	18140,32
940,91	17992,87
941,29	17877,01
941,66	17855,56
942,03	17578,98
942,41	17628,13
942,78	17224,39
943,15	17281,35
943,53	17087,08
943,90	16920,90
944,27	16771,50
944,65	16688,41
945,02	16480,88
945,39	16532,76
945,77	16399,74
946,14	16223,42
946,51	16077,14
946,89	16001,46
947,26	15976,89
947,63	15950,75
948,01	15687,83
948,38	15614,88
948,75	15506,44
949,12	15403,85
949,50	15319,98
949,87	15081,63
950,24	14961,09
950,61	14887,37
950,99	14758,64
951,36	14632,64
951,73	14549,16
952,10	14413,80
952,48	14379,08
952,85	14183,65
953,22	14184,43
953,59	14012,79
953,96	13919,17
954,34	13777,95
954,71	13576,67
955,08	13657,42
955,45	13461,98
955,82	13405,81
956,20	13476,02
956,57	13120,26
956,94	13162,00
957,31	13038,34
957,68	12962,67
958,05	12775,03
958,42	12706,38
958,80	12548,00
959,17	12464,13
959,54	12308,10
959,91	12242,17
960,28	12206,67
960,65	11989,78
961,02	11969,89
961,39	12052,20
961,76	11877,83
962,14	11685,51
962,51	11526,36
962,88	11502,17
963,25	11393,34
963,62	11256,42
963,99	11261,88
964,36	11211,56
964,73	11009,88
965,10	11071,12
965,47	10860,09
965,84	10810,15
966,21	10804,69
966,58	10723,94
966,95	10546,06
967,32	10496,91
967,69	10437,62
968,06	10387,30
968,43	10222,68
968,80	10239,84
969,17	10092,39
969,54	10002,67
969,91	9971,07
970,28	9916,46
970,65	9774,08
971,02	9621,55
971,39	9657,44
971,76	9583,71
972,13	9543,92
972,50	9422,22
972,87	9361,36
973,24	9226,78
973,61	9106,63
973,98	9167,88
974,34	9073,09
974,71	9074,65
975,08	8846,83
975,45	8840,59
975,82	8872,97
976,19	8732,93
976,56	8640,87
976,93	8569,87
977,30	8436,07
977,66	8367,42
978,03	8368,59
978,40	8266,38
978,77	8302,66
979,14	8177,83
979,51	8088,89
979,88	8109,18
980,24	8062,76
980,61	8007,36
980,98	7876,68
981,35	7858,35
981,72	7783,45
982,08	7709,72
982,45	7596,60
982,82	7615,32
983,19	7462,02
983,56	7566,95
983,92	7509,61
984,29	7379,71
984,66	7229,13
985,03	7313,78
985,39	7295,84
985,76	7185,83
986,13	7035,65
986,50	7039,94
986,86	7017,71
987,23	6894,05
987,60	6905,75
987,97	6895,22
988,33	6853,48
988,70	6654,53
989,07	6770,39
989,43	6654,14
989,80	6523,85
990,17	6582,37
990,53	6447,79
990,90	6489,92
991,27	6394,73
991,63	6366,26
992,00	6283,95
992,37	6274,59
992,73	6267,95
993,10	6172,77
993,47	6126,35
993,83	6169,26
994,20	6021,03
994,57	6068,23
994,93	5988,26
995,30	5996,84
995,66	5888,01
996,03	5778,78
996,40	5799,07
996,76	5767,08
997,13	5719,49
997,49	5638,74
997,86	5617,68
998,23	5643,03
998,59	5542,00
998,96	5484,27
999,32	5492,07
999,69	5389,86
1000,05	5375,43
1000,42	5314,58
1000,78	5288,05
1001,15	5297,80
1001,51	5307,55
1001,88	5182,34
1002,24	5165,95
1002,61	5171,41
1002,97	5195,21
1003,34	5064,92
1003,70	5011,87
1004,07	5103,54
1004,43	5003,68
1004,80	4995,48
1005,16	4953,35
1005,53	4988,07
1005,89	4874,17
1006,26	4817,60
1006,62	4773,91
1006,99	4807,46
1007,35	4749,34
1007,72	4766,11
1008,08	4683,80
1008,44	4703,31
1008,81	4572,24
1009,17	4573,02
1009,54	4552,34
1009,90	4529,33
1010,26	4501,63
1010,63	4487,20
1010,99	4424,78
1011,36	4424,78
1011,72	4411,52
1012,08	4420,10
1012,45	4366,27
1012,81	4363,54
1013,17	4393,58
1013,54	4290,98
1013,90	4237,54
1014,26	4199,70
1014,63	4189,95
1014,99	4225,06
1015,35	4187,61
1015,72	4199,70
1016,08	4114,27
1016,44	4099,84
1016,81	4099,45
1017,17	4053,81
1017,53	4009,73
1017,90	4070,19
1018,26	4015,97
1018,62	3927,03
1018,98	3919,62
1019,35	3923,13
1019,71	3886,07
1020,07	3966,43
1020,43	3870,47
1020,80	3798,30
1021,16	3822,09
1021,52	3873,20
1021,88	3796,74
1022,25	3786,60
1022,61	3755,39
1022,97	3731,59
1023,33	3703,90
1023,70	3728,86
1024,06	3647,33
1024,42	3712,48
1024,78	3636,80
1025,14	3593,89
1025,50	3619,64
1025,87	3634,46
1026,23	3584,53
1026,59	3535,77
1026,95	3536,55
1027,31	3514,70
1027,67	3565,81
1028,04	3503,00
1028,40	3522,12
1028,76	3480,77
1029,12	3456,97
1029,48	3458,14
1029,84	3471,79
1030,20	3453,46
1030,56	3350,87
1030,92	3450,34
1031,29	3404,70
1031,65	3389,88
1032,01	3354,77
1032,37	3321,22
1032,73	3378,17
1033,09	3349,70
1033,45	3378,95
1033,81	3258,81
1034,17	3282,21
1034,53	3265,44
1034,89	3256,08
1035,25	3256,08
1035,61	3256,08
>>>>>End Processed Spectral Data<<<<<
