SpectraSuite Data File
++++++++++++++++++++++++++++++++++++
Date: Wed Feb 24 12:54:06 EET 2016
User: OO Maya
Dark Spectrum Present: No
Reference Spectrum Present: No
Number of Sampled Component Spectra: 1
Spectrometers: FLMS00673
Integration Time (usec): 1000000 (FLMS00673)
Spectra Averaged: 6 (FLMS00673)
Boxcar Smoothing: 0 (FLMS00673)
Correct for Electrical Dark: No (FLMS00673)
Strobe/Lamp Enabled: No (FLMS00673)
Correct for Detector Non-linearity: No (FLMS00673)
Correct for Stray Light: No (FLMS00673)
Number of Pixels in Processed Spectrum: 2048
>>>>>Begin Processed Spectral Data<<<<<
188,41	2182,94
188,88	2182,94
189,35	2182,94
189,82	2127,16
190,28	2200,49
190,75	2243,01
191,22	2238,33
191,68	2200,49
192,15	2208,69
192,62	2366,28
193,08	2257,84
193,55	2335,85
194,02	2240,28
194,48	2298,80
194,95	2389,30
195,42	2314,79
195,88	2388,91
196,35	2379,93
196,82	2367,84
197,28	2472,39
197,75	2441,57
198,22	2434,55
198,68	2547,28
199,15	2505,93
199,61	2491,50
200,08	2579,66
200,55	2503,98
201,01	2552,74
201,48	2621,01
201,94	2609,70
202,41	2581,61
202,88	2616,72
203,34	2614,77
203,81	3213,56
204,27	2721,65
204,74	2705,27
205,20	2645,20
205,67	2645,20
206,13	2681,86
206,60	2670,55
207,06	2637,00
207,53	2661,97
208,00	2683,81
208,46	2667,82
208,93	2711,90
209,39	2727,89
209,86	2674,45
210,32	2750,52
210,78	2839,46
211,25	2641,29
211,71	2712,68
212,18	2651,44
212,64	2658,85
213,11	2730,23
213,57	2636,61
214,04	2675,23
214,50	2637,39
214,97	2912,41
215,43	2814,49
215,89	2629,20
216,36	2621,40
216,82	2628,03
217,29	2621,79
217,75	2610,87
218,22	2619,84
218,68	2733,36
219,14	2682,25
219,61	2701,37
220,07	2644,42
220,53	2663,14
221,00	2622,96
221,46	2610,87
221,93	2654,56
222,39	2597,21
222,85	2716,97
223,32	2598,38
223,78	2583,95
224,24	2824,25
224,71	2654,17
225,17	2628,81
225,63	2635,83
226,10	2637,39
226,56	2651,05
227,02	2640,90
227,48	2644,42
227,95	2625,69
228,41	2580,44
228,87	2647,93
229,34	2755,98
229,80	2635,83
230,26	2589,41
230,72	2702,15
231,19	2718,53
231,65	2614,38
232,11	2639,34
232,57	2607,36
233,04	2608,14
233,50	2633,88
233,96	2641,68
234,42	2683,42
234,88	2633,49
235,35	2657,68
235,81	2611,65
236,27	2630,37
236,73	2662,36
237,19	2653,00
237,66	2675,23
238,12	2592,14
238,58	2654,56
239,04	2634,27
239,50	2690,06
239,96	2695,52
240,43	2651,05
240,89	2683,81
241,35	2653,39
241,81	2640,90
242,27	2621,01
242,73	2617,11
243,19	2650,27
243,66	2626,86
244,12	2640,90
244,58	2673,28
245,04	2628,81
245,50	2635,83
245,96	2652,61
246,42	2650,27
246,88	2676,79
247,34	2806,30
247,80	2653,78
248,26	2859,35
248,72	2661,19
249,18	2738,82
249,65	2622,57
250,11	2672,50
250,57	2607,75
251,03	2612,82
251,49	2653,39
251,95	2642,46
252,41	2653,78
252,87	2646,76
253,33	2668,21
253,79	2676,40
254,25	2644,42
254,71	2658,46
255,17	2635,05
255,63	2645,98
256,09	2621,79
256,55	2597,60
257,01	2722,43
257,47	2722,04
257,92	2697,47
258,38	2731,41
258,84	2711,90
259,30	2669,77
259,76	2642,85
260,22	2685,76
260,68	2666,65
261,14	2653,00
261,60	2636,61
262,06	2670,94
262,52	2745,84
262,98	2682,64
263,43	2712,68
263,89	2655,73
264,35	2649,49
264,81	2623,35
265,27	2647,15
265,73	2638,56
266,19	2658,85
266,65	2638,56
267,10	2594,09
267,56	2580,44
268,02	2638,56
268,48	2619,45
268,94	2679,91
269,40	2648,32
269,85	2647,54
270,31	2640,51
270,77	2638,56
271,23	2660,41
271,69	2658,07
272,14	2719,31
272,60	2669,77
273,06	2621,40
273,52	2738,04
273,98	2645,98
274,43	2651,44
274,89	2656,12
275,35	2609,70
275,81	2768,07
276,26	2688,11
276,72	2615,16
277,18	2635,44
277,63	2831,66
278,09	2778,22
278,55	2652,22
279,01	2684,20
279,46	2650,66
279,92	2625,30
280,38	2635,83
280,83	2639,73
281,29	2675,62
281,75	2631,15
282,20	2688,89
282,66	2716,58
283,12	2639,34
283,57	2687,72
284,03	2677,96
284,49	2660,02
284,94	2715,80
285,40	2681,08
285,86	2730,23
286,31	2656,51
286,77	2654,95
287,23	2708,00
287,68	2651,05
288,14	2727,50
288,59	2664,70
289,05	2713,46
289,51	2747,40
289,96	2690,45
290,42	2713,46
290,87	2679,13
291,33	2669,38
291,78	2686,15
292,24	2665,09
292,70	2666,26
293,15	2722,43
293,61	2687,33
294,06	2788,75
294,52	2654,56
294,97	2631,54
295,43	2709,56
295,88	2638,56
296,34	2694,74
296,79	2727,89
297,25	2650,66
297,70	2668,21
298,16	2665,09
298,61	2720,87
299,07	2677,57
299,52	2720,09
299,98	2697,86
300,43	2892,12
300,89	2693,57
301,34	2661,19
301,80	2687,72
302,25	2713,46
302,71	2738,43
303,16	2699,03
303,61	2694,35
304,07	2780,56
304,52	2725,94
304,98	2656,90
305,43	2740,38
305,88	2692,01
306,34	2722,04
306,79	2816,05
307,25	2839,46
307,70	2777,44
308,15	2819,18
308,61	2774,32
309,06	2944,39
309,52	2918,26
309,97	2908,12
310,42	3015,39
310,88	2977,16
311,33	3033,33
311,78	2960,78
312,24	3072,73
312,69	3130,86
313,14	3171,04
313,60	3341,89
314,05	3458,53
314,50	3818,58
314,95	3967,21
315,41	4370,95
315,86	4587,06
316,31	4764,94
316,77	4881,58
317,22	4988,46
317,67	5066,48
318,12	5224,86
318,58	5340,71
319,03	5378,55
319,48	5443,31
319,93	5535,76
320,39	5427,70
320,84	5490,51
321,29	5586,47
321,74	5695,30
322,20	5828,32
322,65	5870,84
323,10	6155,22
323,55	6324,91
324,00	6521,51
324,46	6824,22
324,91	7049,30
325,36	7269,31
325,81	7476,45
326,26	7651,60
326,71	7596,21
327,17	7694,51
327,62	7700,75
328,07	8049,88
328,52	8323,34
328,97	8605,37
329,42	8758,28
329,87	9093,76
330,33	9387,89
330,78	9754,18
331,23	10050,26
331,68	10374,03
332,13	10709,51
332,58	10901,83
333,03	10891,68
333,48	10695,08
333,93	10469,22
334,38	10481,31
334,84	10631,88
335,29	10680,25
335,74	10778,95
336,19	10881,93
336,64	11065,27
337,09	11263,05
337,54	11465,50
337,99	11738,96
338,44	12136,46
338,89	12442,68
339,34	12683,36
339,79	13047,32
340,24	13304,39
340,69	13629,33
341,14	13794,34
341,59	14094,71
342,04	14362,70
342,49	14546,82
342,94	14701,29
343,39	15164,72
343,84	15111,67
344,29	15141,71
344,74	15258,73
345,19	15291,89
345,64	15354,30
346,09	15399,55
346,54	15408,14
346,99	15522,04
347,43	15697,97
347,88	15671,06
348,33	15994,83
348,78	15990,93
349,23	16328,75
349,68	16515,21
350,13	16643,94
350,58	16880,33
351,03	17320,35
351,48	17407,34
351,92	17751,40
352,37	17847,76
352,82	18027,98
353,27	18133,69
353,72	18187,52
354,17	18308,06
354,62	18487,50
355,06	18668,89
355,51	18682,55
355,96	18996,18
356,41	19112,03
356,86	19377,30
357,30	19483,79
357,75	19694,83
358,20	19962,43
358,65	20207,02
359,10	20582,67
359,54	20813,60
359,99	20983,68
360,44	21173,27
360,89	21415,90
361,34	21598,85
361,78	21723,68
362,23	21702,23
362,68	22049,02
363,13	22057,21
363,57	22290,09
364,02	22338,85
364,47	22458,61
364,91	22416,09
365,36	22526,88
365,81	22655,61
366,26	22678,23
366,70	23021,12
367,15	23001,22
367,60	23200,95
368,04	23331,24
368,49	23425,64
368,94	23587,92
369,38	23536,43
369,83	23686,61
370,28	23854,74
370,72	23628,49
371,17	24056,42
371,62	23638,24
372,06	23748,64
372,51	23828,99
372,96	23521,99
373,40	23571,15
373,85	23446,32
374,29	23494,69
374,74	23546,96
375,19	23069,10
375,63	23068,71
376,08	23126,05
376,52	22711,39
376,97	22664,97
377,42	22080,61
377,86	21463,88
378,31	20737,15
378,75	20112,22
379,20	19296,16
379,64	18388,42
380,09	17411,25
380,53	16586,60
380,98	15357,04
381,43	14237,87
381,87	13439,36
382,32	12445,80
382,76	11680,05
383,21	10857,36
383,65	10194,98
384,10	9599,32
384,54	9095,32
384,99	8550,37
385,43	8174,71
385,88	7751,46
386,32	7550,96
386,76	7183,49
387,21	7038,77
387,65	6869,47
388,10	6658,82
388,54	6469,24
388,99	6353,38
389,43	6376,79
389,88	5976,17
390,32	5880,99
390,76	5762,01
391,21	5573,21
391,65	5493,24
392,10	5539,66
392,54	5163,61
392,98	5019,28
393,43	4851,93
393,87	4589,01
394,32	4363,93
394,76	4205,94
395,20	4003,10
395,65	3947,31
396,09	3733,93
396,53	3579,07
396,98	3457,36
397,42	3309,13
397,86	3255,30
398,31	3161,28
398,75	3107,84
399,19	2979,11
399,64	2954,54
400,08	2921,38
400,52	2885,10
400,97	2886,27
401,41	2854,67
401,85	2847,65
402,30	2765,73
402,74	2798,11
403,18	2809,03
403,62	2798,11
404,07	2753,25
404,51	2754,81
404,95	2764,95
405,39	2692,40
405,84	2706,44
406,28	2735,70
406,72	2676,01
407,16	2830,88
407,61	2686,15
408,05	2705,27
408,49	2739,99
408,93	2710,34
409,37	2711,12
409,82	2725,16
410,26	2665,48
410,70	2744,28
411,14	2666,26
411,58	2707,22
412,02	2694,35
412,47	2704,49
412,91	2677,18
413,35	2741,94
413,79	2782,51
414,23	2716,97
414,67	2722,43
415,12	2761,83
415,56	2654,17
416,00	2725,55
416,44	2675,23
416,88	2752,08
417,32	2703,71
417,76	2693,57
418,20	2780,95
418,64	2619,06
419,08	2722,43
419,53	2643,24
419,97	2651,44
420,41	2691,23
420,85	2641,29
421,29	2769,24
421,73	2633,88
422,17	2670,55
422,61	2714,63
423,05	2647,15
423,49	2689,28
423,93	2682,25
424,37	2715,80
424,81	2819,18
425,25	2636,61
425,69	2677,57
426,13	2651,05
426,57	2702,15
427,01	2679,91
427,45	2675,62
427,89	2712,68
428,33	2660,02
428,77	2641,68
429,21	2717,75
429,65	2635,05
430,09	2658,07
430,53	2695,13
430,97	2727,50
431,41	2733,36
431,85	2771,58
432,29	2662,75
432,73	2702,54
433,16	2687,72
433,60	2663,14
434,04	2705,66
434,48	2734,14
434,92	2672,50
435,36	2672,11
435,80	2803,57
436,24	2692,40
436,68	2679,91
437,12	2699,81
437,55	2737,26
437,99	2718,53
438,43	2679,52
438,87	2742,72
439,31	2688,50
439,75	2672,89
440,18	2694,74
440,62	2699,03
441,06	2692,79
441,50	2722,82
441,94	2767,29
442,38	2661,58
442,81	2677,96
443,25	2653,00
443,69	2667,43
444,13	2677,18
444,57	2648,71
445,00	2683,03
445,44	2677,57
445,88	2746,62
446,32	2691,62
446,75	2696,30
447,19	2653,78
447,63	2821,52
448,07	2676,01
448,50	2722,82
448,94	2676,40
449,38	2675,62
449,82	2695,13
450,25	2650,66
450,69	2690,45
451,13	2848,43
451,56	2688,89
452,00	2755,59
452,44	2695,13
452,87	2688,11
453,31	2691,23
453,75	2676,79
454,18	2697,47
454,62	2706,44
455,06	2699,03
455,49	2720,09
455,93	2688,50
456,37	2718,92
456,80	2664,31
457,24	2667,04
457,68	2761,05
458,11	2750,52
458,55	2717,36
458,98	2733,36
459,42	2745,06
459,86	2698,64
460,29	2721,26
460,73	2774,71
461,16	2654,17
461,60	2752,86
462,04	2763,78
462,47	2691,62
462,91	2698,25
463,34	2669,38
463,78	2759,49
464,21	2711,51
464,65	2781,73
465,08	2690,84
465,52	2717,36
465,96	2730,23
466,39	2723,99
466,83	2798,11
467,26	2777,44
467,70	2716,97
468,13	2692,01
468,57	2716,97
469,00	2789,14
469,44	2679,91
469,87	2694,35
470,31	2681,47
470,74	2740,77
471,17	2775,49
471,61	2693,96
472,04	2772,75
472,48	2781,34
472,91	2712,68
473,35	2698,64
473,78	2764,95
474,22	2740,77
474,65	2818,79
475,08	2759,10
475,52	2743,89
475,95	2793,43
476,39	2699,03
476,82	2702,15
477,25	2687,72
477,69	2715,80
478,12	2772,36
478,56	2861,30
478,99	2794,99
479,42	2725,94
479,86	2739,21
480,29	2723,60
480,72	2702,54
481,16	2686,94
481,59	2740,77
482,02	2724,77
482,46	2809,42
482,89	2744,67
483,32	2783,68
483,76	2702,54
484,19	2756,37
484,62	2709,95
485,06	2814,10
485,49	2702,93
485,92	2764,17
486,35	2804,35
486,79	2699,03
487,22	2898,75
487,65	2949,86
488,09	2712,29
488,52	2724,77
488,95	2731,02
489,38	2823,86
489,82	2787,97
490,25	2739,99
490,68	2723,60
491,11	2750,91
491,54	2695,91
491,98	2683,03
492,41	2712,68
492,84	2762,22
493,27	2718,14
493,70	2771,97
494,14	2795,77
494,57	2755,59
495,00	2708,39
495,43	2780,95
495,86	2749,74
496,30	2818,79
496,73	2738,82
497,16	2717,75
497,59	2709,56
498,02	2728,28
498,45	2703,71
498,88	2730,62
499,32	2718,92
499,75	2689,67
500,18	2764,56
500,61	2698,25
501,04	2811,37
501,47	2678,35
501,90	2695,52
502,33	2692,40
502,76	2694,74
503,19	2763,39
503,62	2668,99
504,06	2708,00
504,49	2695,13
504,92	2681,47
505,35	2674,06
505,78	2731,80
506,21	2704,88
506,64	2716,58
507,07	2733,75
507,50	2738,82
507,93	2663,53
508,36	2715,02
508,79	2704,10
509,22	2685,37
509,65	2690,45
510,08	2749,74
510,51	2713,46
510,94	2713,85
511,37	2805,91
511,80	2684,98
512,23	2726,72
512,66	2689,28
513,09	2693,96
513,52	2664,31
513,95	2736,48
514,38	2792,26
514,81	2702,15
515,23	2696,30
515,66	2809,42
516,09	2792,65
516,52	2709,95
516,95	2691,23
517,38	2703,32
517,81	2699,42
518,24	2756,76
518,67	2794,60
519,10	2670,16
519,53	2681,86
519,95	2743,89
520,38	2697,08
520,81	2728,28
521,24	2690,45
521,67	2671,72
522,10	2662,36
522,53	2677,18
522,95	2706,44
523,38	2763,78
523,81	2692,40
524,24	2729,45
524,67	2748,96
525,09	2704,88
525,52	2700,20
525,95	2679,52
526,38	2681,08
526,81	2662,36
527,23	2740,38
527,66	2728,28
528,09	2702,54
528,52	2727,11
528,95	2672,11
529,37	2718,14
529,80	2695,13
530,23	2703,71
530,66	2701,37
531,08	2684,20
531,51	2703,71
531,94	2720,48
532,37	2638,17
532,79	2656,51
533,22	2663,14
533,65	2753,64
534,07	2723,60
534,50	2659,63
534,93	2755,20
535,35	2676,79
535,78	2674,84
536,21	2713,07
536,63	2756,37
537,06	2702,93
537,49	2738,82
537,91	2656,51
538,34	2694,74
538,77	2762,61
539,19	2682,25
539,62	2662,36
540,05	2721,65
540,47	2718,92
540,90	2686,94
541,33	2715,41
541,75	2699,42
542,18	2728,67
542,60	2755,20
543,03	2684,59
543,45	2631,54
543,88	2732,58
544,31	2762,61
544,73	2714,24
545,16	2729,45
545,58	2634,66
546,01	2686,15
546,43	2720,48
546,86	2631,54
547,29	2665,09
547,71	2719,31
548,14	2666,26
548,56	2708,00
548,99	2688,89
549,41	2731,80
549,84	2670,55
550,26	2791,09
550,69	2718,14
551,11	2647,93
551,54	2714,63
551,96	2677,57
552,39	2698,64
552,81	2729,45
553,24	2711,12
553,66	2692,40
554,08	2693,18
554,51	2727,50
554,93	2738,43
555,36	2700,20
555,78	2642,07
556,21	2661,97
556,63	2681,47
557,06	2709,95
557,48	2631,15
557,90	2637,00
558,33	2787,58
558,75	2687,72
559,18	2790,70
559,60	2793,82
560,02	2699,81
560,45	2670,55
560,87	2715,80
561,29	2704,10
561,72	2651,83
562,14	2680,69
562,57	2685,37
562,99	2708,00
563,41	2692,79
563,84	2693,96
564,26	2730,63
564,68	2678,35
565,11	2748,18
565,53	2671,33
565,95	2639,34
566,37	2670,55
566,80	2627,25
567,22	2635,44
567,64	2664,70
568,07	2682,64
568,49	2922,55
568,91	2695,52
569,33	2776,27
569,76	2655,73
570,18	2722,04
570,60	2688,89
571,03	2759,49
571,45	2706,44
571,87	2711,90
572,29	2672,11
572,71	2734,14
573,14	2659,63
573,56	2662,75
573,98	2662,36
574,40	2759,10
574,83	2644,03
575,25	2683,03
575,67	2685,76
576,09	2688,11
576,51	2669,77
576,93	2669,38
577,36	2683,81
577,78	2714,24
578,20	2635,83
578,62	2682,25
579,04	2702,54
579,46	2661,19
579,89	2739,99
580,31	2678,35
580,73	2663,53
581,15	2680,30
581,57	2640,12
581,99	2677,96
582,41	2693,18
582,83	2758,71
583,25	2685,37
583,68	2731,80
584,10	2675,23
584,52	2669,38
584,94	2698,64
585,36	2637,39
585,78	2680,69
586,20	2651,83
586,62	2664,70
587,04	2633,88
587,46	2657,29
587,88	2653,39
588,30	2671,33
588,72	2652,22
589,14	2645,59
589,56	2648,71
589,98	2677,57
590,40	2689,67
590,82	2660,41
591,24	2635,83
591,66	2655,34
592,08	2640,12
592,50	2711,51
592,92	2650,66
593,34	2712,68
593,76	2681,08
594,18	2693,57
594,60	2690,45
595,02	2716,19
595,44	2711,12
595,86	2754,03
596,28	2762,61
596,70	2676,01
597,12	2659,24
597,54	2669,77
597,96	2649,88
598,37	2687,72
598,79	2714,24
599,21	2724,77
599,63	2739,60
600,05	2640,90
600,47	2741,94
600,89	2676,79
601,31	2675,23
601,73	2645,59
602,14	2782,90
602,56	2744,67
602,98	2803,18
603,40	2768,85
603,82	2683,42
604,24	2661,19
604,65	2667,04
605,07	2756,76
605,49	2663,14
605,91	2681,47
606,33	2763,78
606,75	2694,74
607,16	2670,16
607,58	2684,20
608,00	2665,87
608,42	2684,59
608,83	2682,64
609,25	2741,55
609,67	2711,12
610,09	2638,95
610,51	2629,98
610,92	2650,66
611,34	2699,42
611,76	2662,75
612,17	2680,69
612,59	2708,78
613,01	2685,76
613,43	2640,90
613,84	2638,17
614,26	2662,75
614,68	2696,69
615,10	2671,72
615,51	2702,54
615,93	2692,79
616,35	2682,64
616,76	2725,16
617,18	2683,81
617,60	2679,52
618,01	2642,46
618,43	2676,01
618,85	2667,43
619,26	2644,81
619,68	2711,90
620,09	2718,53
620,51	2663,92
620,93	2704,10
621,34	2640,51
621,76	2669,77
622,18	2676,40
622,59	2674,45
623,01	2752,08
623,42	2716,97
623,84	2723,21
624,26	2674,45
624,67	2695,52
625,09	2767,29
625,50	2661,19
625,92	2640,90
626,33	2727,89
626,75	2708,78
627,17	2715,02
627,58	2789,14
628,00	2656,12
628,41	2690,06
628,83	2648,71
629,24	2675,62
629,66	2731,80
630,07	2672,89
630,49	2661,97
630,90	2749,74
631,32	2766,12
631,73	2661,58
632,15	2713,85
632,56	2663,53
632,98	2649,88
633,39	2691,23
633,81	2619,45
634,22	2644,42
634,63	2687,72
635,05	2646,37
635,46	2656,90
635,88	2712,68
636,29	2696,30
636,71	2702,15
637,12	2766,12
637,54	2672,11
637,95	2683,03
638,36	2718,14
638,78	2648,32
639,19	2622,96
639,61	2647,54
640,02	2646,37
640,43	2653,00
640,85	2656,12
641,26	2654,95
641,67	2702,15
642,09	2835,17
642,50	2641,68
642,91	2697,47
643,33	2645,59
643,74	2677,96
644,15	2678,74
644,57	2707,22
644,98	2694,74
645,39	2671,33
645,81	2700,98
646,22	2656,12
646,63	2708,78
647,05	2682,64
647,46	2716,19
647,87	2657,68
648,29	2736,09
648,70	2705,27
649,11	2693,57
649,52	2642,07
649,94	2698,64
650,35	2697,08
650,76	2655,73
651,17	2695,91
651,59	2754,81
652,00	2683,81
652,41	2706,44
652,82	2684,98
653,24	2646,37
653,65	2711,12
654,06	2684,20
654,47	2693,57
654,88	2763,39
655,30	2729,45
655,71	2682,25
656,12	2645,98
656,53	2658,85
656,94	2653,78
657,35	2737,26
657,77	2707,22
658,18	2650,27
658,59	2809,03
659,00	2645,20
659,41	2720,87
659,82	2710,73
660,23	2651,44
660,65	2700,98
661,06	2754,81
661,47	2717,75
661,88	2699,81
662,29	2688,50
662,70	2704,10
663,11	2669,77
663,52	2626,47
663,93	2646,37
664,34	2745,45
664,76	2716,97
665,17	2696,69
665,58	2673,28
665,99	2700,59
666,40	2668,21
666,81	2699,42
667,22	2671,72
667,63	2714,24
668,04	2693,57
668,45	2743,50
668,86	2661,19
669,27	2626,86
669,68	2764,56
670,09	2688,11
670,50	2695,52
670,91	2671,72
671,32	2748,57
671,73	2679,52
672,14	2677,18
672,55	2670,16
672,96	2651,05
673,37	2667,43
673,78	2678,35
674,19	2707,61
674,60	2714,63
675,01	2676,01
675,42	2720,09
675,82	2696,69
676,23	2661,97
676,64	2787,58
677,05	2716,97
677,46	2814,88
677,87	2663,53
678,28	2725,55
678,69	2681,47
679,10	2745,84
679,51	2760,27
679,91	2754,81
680,32	2701,37
680,73	2688,11
681,14	2640,12
681,55	2692,79
681,96	2734,14
682,37	2681,08
682,78	2634,27
683,18	2654,56
683,59	2677,18
684,00	2823,47
684,41	2645,59
684,82	2676,01
685,22	2774,32
685,63	2706,05
686,04	2710,34
686,45	2698,64
686,86	2734,53
687,26	2686,15
687,67	2714,24
688,08	2649,10
688,49	2638,95
688,90	2765,73
689,30	2773,53
689,71	2674,84
690,12	2692,40
690,53	2728,28
690,93	2699,42
691,34	2650,66
691,75	2699,42
692,15	2673,67
692,56	2739,21
692,97	2684,98
693,38	2733,36
693,78	2655,34
694,19	2622,96
694,60	2667,04
695,00	2676,79
695,41	2643,24
695,82	2681,08
696,22	2738,43
696,63	2725,94
697,04	2776,27
697,44	2727,11
697,85	2714,24
698,26	2726,33
698,66	2800,06
699,07	2703,32
699,48	2695,52
699,88	2738,82
700,29	2779,39
700,69	2711,12
701,10	2738,43
701,51	2716,97
701,91	2715,41
702,32	2748,96
702,72	2825,42
703,13	2812,15
703,54	2685,37
703,94	2797,33
704,35	2743,89
704,75	2755,59
705,16	2766,51
705,56	2789,14
705,97	2761,05
706,37	2775,49
706,78	2789,92
707,18	2761,83
707,59	2763,78
707,99	2734,53
708,40	2763,00
708,81	2778,61
709,21	2867,55
709,62	2761,05
710,02	2759,88
710,42	2789,92
710,83	2818,40
711,23	2830,88
711,64	2839,85
712,04	2835,17
712,45	2837,90
712,85	2821,91
713,26	2898,75
713,66	2813,32
714,07	2885,49
714,47	2847,65
714,87	2821,91
715,28	2834,78
715,68	2871,06
716,09	2861,69
716,49	2887,44
716,90	2841,41
717,30	2902,65
717,70	2873,40
718,11	2878,47
718,51	2955,71
718,91	2910,85
719,32	2927,62
719,72	2877,69
720,13	2942,05
720,53	2917,87
720,93	2986,13
721,34	2903,04
721,74	2980,28
722,14	2999,40
722,55	2999,40
722,95	2986,91
723,35	2950,25
723,76	3019,29
724,16	2970,92
724,56	2984,18
724,97	3017,73
725,37	2994,72
725,77	3004,47
726,17	3022,80
726,58	3011,49
726,98	3046,21
727,38	3057,52
727,78	3012,27
728,19	3015,39
728,59	3125,40
728,99	3103,55
729,39	3079,75
729,80	3048,16
730,20	3073,90
730,60	3138,66
731,00	3127,74
731,41	3127,35
731,81	3160,11
732,21	3194,05
732,61	3240,47
733,01	3171,04
733,42	3267,78
733,82	3217,46
734,22	3192,10
734,62	3264,27
735,02	3270,12
735,42	3139,83
735,83	3233,45
736,23	3246,71
736,63	3270,51
737,03	3276,36
737,43	3374,27
737,83	3225,26
738,23	3234,23
738,64	3275,19
739,04	3204,19
739,44	3230,33
739,84	3201,07
740,24	3178,06
740,64	3136,71
741,04	3154,26
741,44	3154,26
741,84	3129,30
742,24	3148,41
742,64	3209,26
743,05	3138,66
743,45	3141,39
743,85	3112,52
744,25	3169,09
744,65	3116,42
745,05	3151,14
745,45	3181,18
745,85	3223,70
746,25	3216,29
746,65	3109,01
747,05	3106,67
747,45	3148,02
747,85	3109,01
748,25	3050,50
748,65	3119,15
749,05	3015,00
749,45	3041,14
749,85	3061,42
750,25	3077,41
750,65	3018,90
751,05	3002,52
751,45	3018,12
751,85	3046,60
752,25	2988,86
752,64	3044,26
753,04	3040,36
753,44	3030,21
753,84	3004,86
754,24	2975,21
754,64	2954,15
755,04	3102,38
755,44	2986,91
755,84	2971,70
756,24	2954,93
756,64	2920,99
757,03	3073,12
757,43	2967,02
757,83	2900,31
758,23	2891,34
758,63	2917,09
759,03	3058,30
759,43	2848,82
759,82	2887,05
760,22	2929,57
760,62	2943,22
761,02	2910,46
761,42	2935,42
761,82	2925,67
762,21	2912,41
762,61	2884,71
763,01	3001,74
763,41	2903,43
763,81	2862,48
764,20	2842,97
764,60	2935,42
765,00	2872,62
765,40	2940,88
765,79	2837,51
766,19	2859,74
766,59	2850,38
766,99	2828,15
767,38	2858,57
767,78	2856,62
768,18	2808,25
768,58	2850,38
768,97	2864,82
769,37	2901,48
769,77	2822,69
770,16	2787,19
770,56	2806,69
770,96	2758,32
771,36	2811,76
771,75	2844,92
772,15	2889,39
772,55	2865,99
772,94	2777,05
773,34	2793,04
773,74	2779,78
774,13	2822,30
774,53	2783,29
774,93	2857,40
775,32	2803,96
775,72	2810,20
776,11	2849,60
776,51	2812,54
776,91	2767,68
777,30	2787,97
777,70	2796,55
778,10	2857,40
778,49	2816,83
778,89	2821,52
779,28	2833,22
779,68	2794,21
780,07	2789,53
780,47	2811,76
780,87	2833,61
781,26	2819,18
781,66	2854,67
782,05	2797,33
782,45	2856,62
782,84	2821,91
783,24	2793,43
783,63	2855,06
784,03	2812,15
784,42	2831,66
784,82	2915,53
785,21	2892,12
785,61	2901,87
786,00	2811,76
786,40	2802,79
786,79	2803,18
787,19	2828,93
787,58	2849,99
787,98	2913,19
788,37	2842,97
788,77	2846,87
789,16	2863,65
789,56	2829,32
789,95	2815,66
790,35	2991,98
790,74	2958,05
791,13	3046,60
791,53	2853,89
791,92	2871,84
792,32	2874,18
792,71	2815,27
793,10	2835,95
793,50	2925,28
793,89	2853,50
794,29	2885,88
794,68	2895,24
795,07	2861,30
795,47	2916,70
795,86	2857,79
796,26	2890,95
796,65	2892,90
797,04	2879,64
797,44	2899,92
797,83	2873,79
798,22	2886,27
798,62	3051,28
799,01	2936,98
799,40	2908,51
799,80	3041,14
800,19	2918,65
800,58	2962,73
800,97	2959,22
801,37	3008,76
801,76	3006,03
802,15	2980,67
802,55	2991,98
802,94	3001,35
803,33	4791,47
803,72	3180,01
804,12	2974,43
804,51	3060,64
804,90	3082,49
805,29	3068,05
805,69	3012,27
806,08	3084,44
806,47	3061,81
806,86	3120,32
807,26	3073,90
807,65	3073,90
808,04	3089,12
808,43	3128,52
808,82	3132,81
809,22	3160,89
809,61	3154,26
810,00	3168,70
810,39	3175,72
810,78	3178,84
811,17	3154,65
811,57	3206,53
811,96	3099,65
812,35	3104,33
812,74	3196,78
813,13	3124,23
813,52	3091,85
813,91	3077,02
814,30	3092,63
814,70	3202,24
815,09	3119,15
815,48	3067,27
815,87	3113,30
816,26	3052,45
816,65	3208,09
817,04	3052,84
817,43	3020,46
817,82	2975,60
818,21	3098,09
818,60	2979,50
819,00	3022,41
819,39	2964,29
819,78	2974,82
820,17	2970,53
820,56	2908,12
820,95	2901,09
821,34	2958,05
821,73	2958,83
822,12	2947,51
822,51	2960,39
822,90	2990,81
823,29	2875,35
823,68	2996,67
824,07	2890,17
824,46	2923,33
824,85	2881,59
825,24	2893,29
825,63	2905,78
826,02	2919,43
826,41	2885,10
826,80	2828,93
827,18	2860,52
827,57	2847,65
827,96	2901,09
828,35	2928,01
828,74	2800,45
829,13	2872,62
829,52	2962,73
829,91	2909,29
830,30	2817,22
830,69	2807,47
831,08	2824,25
831,47	2887,44
831,85	2930,74
832,24	2828,54
832,63	2857,01
833,02	2797,33
833,41	2846,48
833,80	2894,46
834,19	2908,90
834,57	2799,67
834,96	2798,89
835,35	2850,38
835,74	2844,92
836,13	2884,32
836,52	2914,36
836,90	2812,15
837,29	2883,15
837,68	2840,24
838,07	2819,96
838,46	2791,09
838,84	2828,15
839,23	2884,32
839,62	2917,09
840,01	2851,55
840,40	2828,15
840,78	2820,74
841,17	2885,10
841,56	2803,18
841,95	2862,48
842,33	2828,15
842,72	2785,24
843,11	2791,48
843,50	2803,57
843,88	2820,35
844,27	2836,73
844,66	2797,33
845,04	2900,70
845,43	2805,52
845,82	2798,11
846,20	2774,32
846,59	2788,36
846,98	2781,34
847,37	2892,51
847,75	2841,80
848,14	2962,73
848,53	2895,24
848,91	2856,23
849,30	2868,33
849,68	2790,70
850,07	2874,18
850,46	2834,78
850,84	2825,03
851,23	2816,44
851,62	2783,68
852,00	2777,83
852,39	2750,91
852,77	2800,06
853,16	2811,76
853,55	2825,03
853,93	2793,04
854,32	2803,96
854,70	2814,88
855,09	2778,22
855,47	2763,00
855,86	2834,00
856,25	2797,33
856,63	2866,77
857,02	2816,83
857,40	2837,90
857,79	2818,79
858,17	2835,17
858,56	2835,95
858,94	2782,12
859,33	2859,35
859,71	2801,62
860,10	2859,74
860,48	2790,31
860,87	2840,63
861,25	2846,87
861,64	2880,03
862,02	2832,83
862,41	2942,83
862,79	2824,25
863,18	2893,68
863,56	2852,33
863,95	2972,87
864,33	2778,61
864,71	2839,46
865,10	2814,10
865,48	2802,40
865,87	2864,04
866,25	2809,03
866,64	2809,81
867,02	2883,15
867,40	2789,14
867,79	2805,52
868,17	2855,45
868,56	2875,35
868,94	2778,61
869,32	2821,91
869,71	2869,11
870,09	2944,39
870,47	2807,86
870,86	2871,84
871,24	2885,49
871,62	2808,64
872,01	2807,86
872,39	2805,13
872,77	2883,15
873,16	2904,21
873,54	2936,20
873,92	2847,26
874,31	2806,69
874,69	2842,58
875,07	2808,25
875,46	2851,94
875,84	2983,79
876,22	2822,30
876,60	2814,49
876,99	2877,69
877,37	2845,70
877,75	2878,86
878,14	2831,27
878,52	2780,95
878,90	2852,33
879,28	2803,57
879,66	2798,89
880,05	2816,44
880,43	2787,58
880,81	2777,44
881,19	2748,18
881,58	2812,15
881,96	2801,62
882,34	2879,64
882,72	2860,13
883,10	2799,28
883,49	2818,79
883,87	2785,24
884,25	2871,06
884,63	2830,49
885,01	2741,55
885,39	2818,00
885,78	2780,56
886,16	2791,09
886,54	2873,01
886,92	2835,95
887,30	2857,01
887,68	2747,40
888,06	2800,06
888,44	2842,19
888,83	2800,45
889,21	2827,76
889,59	2779,39
889,97	2779,39
890,35	2897,58
890,73	2743,50
891,11	2923,72
891,49	2773,53
891,87	2789,14
892,25	2702,54
892,63	2874,18
893,01	2752,47
893,39	2803,96
893,77	2779,00
894,16	2806,30
894,54	2740,38
894,92	2785,63
895,30	2789,92
895,68	2751,30
896,06	2871,84
896,44	2788,36
896,82	2726,72
897,20	2740,77
897,58	2767,68
897,96	2786,41
898,34	2812,54
898,72	2756,76
899,10	2867,94
899,47	2749,35
899,85	2819,57
900,23	2766,90
900,61	2837,12
900,99	2868,72
901,37	2734,53
901,75	2734,53
902,13	2828,15
902,51	2778,22
902,89	2738,04
903,27	2728,67
903,65	2782,12
904,03	2748,57
904,40	2823,86
904,78	2823,47
905,16	2745,06
905,54	2718,92
905,92	2728,67
906,30	2727,11
906,68	2790,70
907,06	2745,45
907,43	2776,27
907,81	2733,75
908,19	2729,45
908,57	2699,81
908,95	2759,10
909,33	2750,91
909,70	2727,11
910,08	2749,74
910,46	2736,09
910,84	2808,64
911,22	2729,45
911,59	2797,33
911,97	2706,44
912,35	2722,43
912,73	2750,13
913,11	2687,72
913,48	2730,23
913,86	2702,15
914,24	2745,84
914,62	2714,24
914,99	2728,28
915,37	2666,26
915,75	2803,18
916,13	2727,50
916,50	2848,82
916,88	2724,38
917,26	2764,56
917,63	2720,09
918,01	2792,26
918,39	2723,60
918,77	2725,16
919,14	2808,25
919,52	2747,79
919,90	2652,22
920,27	2709,56
920,65	2801,62
921,03	2720,09
921,40	2697,86
921,78	2688,50
922,16	2745,06
922,53	2688,89
922,91	2707,61
923,28	2667,04
923,66	2750,91
924,04	2741,55
924,41	2702,54
924,79	2689,28
925,17	2701,76
925,54	2677,18
925,92	2698,64
926,29	2677,57
926,67	2706,83
927,05	2737,26
927,42	2709,17
927,80	2789,14
928,17	2707,61
928,55	2777,83
928,92	2692,40
929,30	2711,90
929,67	2784,46
930,05	2700,20
930,43	2715,80
930,80	2754,42
931,18	2701,37
931,55	2708,00
931,93	2716,97
932,30	2918,26
932,68	2684,20
933,05	2689,28
933,43	2693,96
933,80	2686,54
934,18	2729,84
934,55	2693,18
934,92	2859,35
935,30	2709,17
935,67	2663,92
936,05	2758,32
936,42	2669,77
936,80	2661,19
937,17	2676,01
937,55	2697,47
937,92	2784,07
938,29	2718,14
938,67	2767,29
939,04	2740,38
939,42	2792,65
939,79	2735,31
940,16	2658,85
940,54	2769,63
940,91	2673,28
941,29	2647,54
941,66	2698,25
942,03	2690,06
942,41	2691,62
942,78	2686,94
943,15	2712,29
943,53	2699,03
943,90	2674,84
944,27	2660,02
944,65	2690,45
945,02	2638,17
945,39	2677,18
945,77	2734,92
946,14	2768,46
946,51	2688,50
946,89	2660,02
947,26	2680,69
947,63	2722,43
948,01	2704,88
948,38	2677,96
948,75	2733,36
949,12	2744,28
949,50	2781,73
949,87	2689,67
950,24	2667,04
950,61	2698,25
950,99	2709,17
951,36	2678,74
951,73	2624,91
952,10	2653,00
952,48	2682,25
952,85	2708,78
953,22	2720,48
953,59	2679,13
953,96	2792,26
954,34	2687,72
954,71	2687,33
955,08	2750,13
955,45	2700,59
955,82	2782,51
956,20	2681,08
956,57	2631,15
956,94	2646,37
957,31	2713,85
957,68	2690,06
958,05	2690,84
958,42	2693,96
958,80	2700,98
959,17	2706,44
959,54	2752,47
959,91	2662,75
960,28	2703,32
960,65	2705,27
961,02	2675,62
961,39	2768,46
961,76	2711,12
962,14	2714,24
962,51	2682,25
962,88	2671,72
963,25	2652,61
963,62	2664,70
963,99	2659,63
964,36	2690,45
964,73	2655,73
965,10	2671,72
965,47	2648,71
965,84	2724,77
966,21	2707,22
966,58	2754,42
966,95	2654,17
967,32	2681,47
967,69	2740,77
968,06	2747,01
968,43	2667,43
968,80	2759,88
969,17	2631,93
969,54	2674,84
969,91	2750,52
970,28	2673,28
970,65	2686,54
971,02	2683,42
971,39	2667,43
971,76	2692,01
972,13	2642,85
972,50	2715,41
972,87	2757,54
973,24	2627,25
973,61	2637,39
973,98	2699,03
974,34	2707,61
974,71	2755,98
975,08	2659,24
975,45	2672,89
975,82	2720,87
976,19	2688,50
976,56	2732,19
976,93	2670,16
977,30	2710,73
977,66	2639,73
978,03	2732,19
978,40	2621,40
978,77	2697,08
979,14	2659,63
979,51	2658,46
979,88	2670,55
980,24	2715,02
980,61	2718,53
980,98	2654,17
981,35	2682,25
981,72	2668,99
982,08	2687,72
982,45	2644,81
982,82	2706,44
983,19	2644,81
983,56	2739,60
983,92	2728,28
984,29	2634,27
984,66	2634,66
985,03	2702,54
985,39	2765,34
985,76	2733,36
986,13	2660,80
986,50	2712,29
986,86	2677,18
987,23	2657,29
987,60	2624,91
987,97	2782,90
988,33	2676,01
988,70	2647,15
989,07	2698,64
989,43	2668,21
989,80	2639,73
990,17	2658,07
990,53	2626,08
990,90	2706,44
991,27	2664,31
991,63	2684,20
992,00	2640,90
992,37	2716,19
992,73	2681,08
993,10	2650,27
993,47	2631,54
993,83	2709,95
994,20	2657,68
994,57	2711,12
994,93	2630,76
995,30	2750,52
995,66	2675,23
996,03	2674,06
996,40	2666,65
996,76	2653,78
997,13	2664,31
997,49	2625,30
997,86	2635,05
998,23	2676,79
998,59	2629,98
998,96	2663,14
999,32	2666,65
999,69	2655,34
1000,05	2671,33
1000,42	2674,06
1000,78	2631,54
1001,15	2660,41
1001,51	2679,52
1001,88	2643,24
1002,24	2685,76
1002,61	2686,94
1002,97	2755,20
1003,34	2680,69
1003,70	2626,08
1004,07	2738,04
1004,43	2647,54
1004,80	2628,81
1005,16	2692,01
1005,53	2750,13
1005,89	2668,99
1006,26	2639,34
1006,62	2619,84
1006,99	2736,09
1007,35	2702,54
1007,72	2681,08
1008,08	2647,54
1008,44	2654,56
1008,81	2660,02
1009,17	2621,40
1009,54	2700,98
1009,90	2607,36
1010,26	2679,52
1010,63	2649,88
1010,99	2684,98
1011,36	2648,32
1011,72	2667,43
1012,08	2715,80
1012,45	2683,42
1012,81	2657,68
1013,17	2711,90
1013,54	2626,47
1013,90	2631,93
1014,26	2624,91
1014,63	2651,05
1014,99	2621,40
1015,35	2636,22
1015,72	2686,54
1016,08	2620,23
1016,44	2673,28
1016,81	2630,76
1017,17	2672,50
1017,53	2632,71
1017,90	2763,00
1018,26	2696,69
1018,62	2642,85
1018,98	2643,64
1019,35	2695,52
1019,71	2618,67
1020,07	2698,25
1020,43	2667,43
1020,80	2620,23
1021,16	2638,56
1021,52	2702,54
1021,88	2654,17
1022,25	2673,28
1022,61	2665,48
1022,97	2636,61
1023,33	2647,54
1023,70	2642,07
1024,06	2613,21
1024,42	2684,20
1024,78	2633,49
1025,14	2658,07
1025,50	2621,40
1025,87	2724,77
1026,23	2685,37
1026,59	2614,38
1026,95	2637,00
1027,31	2648,32
1027,67	2651,05
1028,04	2633,88
1028,40	2679,13
1028,76	2662,75
1029,12	2617,11
1029,48	2673,67
1029,84	2680,30
1030,20	2646,76
1030,56	2661,58
1030,92	2720,09
1031,29	2637,00
1031,65	2647,15
1032,01	2652,61
1032,37	2676,01
1032,73	2708,00
1033,09	2689,67
1033,45	2719,31
1033,81	2627,64
1034,17	2690,84
1034,53	2608,14
1034,89	2646,76
1035,25	2646,76
1035,61	2646,76
>>>>>End Processed Spectral Data<<<<<
