SpectraSuite Data File
++++++++++++++++++++++++++++++++++++
Date: Wed Feb 24 13:01:30 EET 2016
User: OO Maya
Dark Spectrum Present: No
Reference Spectrum Present: No
Number of Sampled Component Spectra: 1
Spectrometers: FLMS00673
Integration Time (usec): 1000000 (FLMS00673)
Spectra Averaged: 6 (FLMS00673)
Boxcar Smoothing: 0 (FLMS00673)
Correct for Electrical Dark: No (FLMS00673)
Strobe/Lamp Enabled: No (FLMS00673)
Correct for Detector Non-linearity: No (FLMS00673)
Correct for Stray Light: No (FLMS00673)
Number of Pixels in Processed Spectrum: 2048
>>>>>Begin Processed Spectral Data<<<<<
188,41	2193,08
188,88	2193,08
189,35	2193,08
189,82	2099,07
190,28	2222,73
190,75	2199,32
191,22	2237,55
191,68	2193,08
192,15	2206,34
192,62	2328,44
193,08	2236,77
193,55	2303,09
194,02	2241,06
194,48	2315,96
194,95	2356,92
195,42	2313,23
195,88	2377,20
196,35	2390,08
196,82	2379,93
197,28	2445,86
197,75	2411,53
198,22	2430,65
198,68	2521,54
199,15	2482,14
199,61	2525,44
200,08	2560,16
200,55	2518,03
201,01	2525,44
201,48	2596,82
201,94	2592,53
202,41	2558,99
202,88	2578,10
203,34	2604,24
203,81	3176,11
204,27	2682,25
204,74	2664,70
205,20	2617,50
205,67	2606,97
206,13	2634,27
206,60	2669,38
207,06	2596,04
207,53	2647,15
208,00	2645,20
208,46	2649,49
208,93	2711,12
209,39	2646,76
209,86	2657,68
210,32	2702,93
210,78	2783,68
211,25	2628,42
211,71	2690,06
212,18	2608,53
212,64	2613,60
213,11	2761,05
213,57	2648,71
214,04	2651,83
214,50	2614,77
214,97	2896,41
215,43	2735,31
215,89	2614,77
216,36	2605,02
216,82	2597,60
217,29	2589,41
217,75	2635,05
218,22	2582,39
218,68	2699,03
219,14	2677,57
219,61	2690,06
220,07	2645,20
220,53	2667,82
221,00	2587,46
221,46	2628,81
221,93	2645,98
222,39	2594,48
222,85	2674,45
223,32	2587,85
223,78	2568,74
224,24	2795,38
224,71	2630,37
225,17	2606,97
225,63	2633,10
226,10	2597,99
226,56	2605,41
227,02	2621,79
227,48	2595,26
227,95	2642,07
228,41	2570,30
228,87	2585,12
229,34	2714,63
229,80	2578,49
230,26	2568,35
230,72	2642,85
231,19	2675,62
231,65	2548,84
232,11	2592,53
232,57	2596,43
233,04	2634,27
233,50	2570,30
233,96	2605,80
234,42	2655,73
234,88	2592,92
235,35	2668,21
235,81	2628,42
236,27	2610,09
236,73	2614,38
237,19	2625,69
237,66	2665,48
238,12	2626,08
238,58	2594,09
239,04	2619,84
239,50	2680,69
239,96	2656,12
240,43	2600,73
240,89	2688,50
241,35	2603,07
241,81	2597,99
242,27	2589,80
242,73	2564,06
243,19	2646,76
243,66	2617,11
244,12	2608,14
244,58	2667,04
245,04	2586,29
245,50	2601,12
245,96	2649,49
246,42	2651,83
246,88	2637,78
247,34	2776,27
247,80	2621,40
248,26	2817,22
248,72	2635,83
249,18	2707,61
249,65	2597,99
250,11	2649,10
250,57	2603,07
251,03	2573,81
251,49	2631,54
251,95	2628,03
252,41	2635,05
252,87	2604,24
253,33	2622,57
253,79	2633,88
254,25	2606,19
254,71	2636,22
255,17	2575,76
255,63	2641,68
256,09	2585,90
256,55	2576,93
257,01	2707,22
257,47	2712,29
257,92	2673,67
258,38	2697,86
258,84	2686,94
259,30	2630,37
259,76	2625,30
260,22	2653,39
260,68	2633,88
261,14	2601,12
261,60	2613,99
262,06	2642,46
262,52	2717,75
262,98	2696,30
263,43	2714,24
263,89	2648,32
264,35	2610,09
264,81	2596,04
265,27	2613,99
265,73	2603,85
266,19	2610,09
266,65	2631,93
267,10	2580,83
267,56	2629,98
268,02	2603,46
268,48	2580,83
268,94	2654,56
269,40	2658,46
269,85	2626,86
270,31	2609,70
270,77	2605,41
271,23	2654,95
271,69	2613,99
272,14	2708,78
272,60	2617,89
273,06	2603,07
273,52	2665,09
273,98	2580,05
274,43	2601,51
274,89	2640,51
275,35	2635,44
275,81	2736,09
276,26	2661,19
276,72	2585,51
277,18	2601,51
277,63	2798,89
278,09	2748,18
278,55	2613,60
279,01	2674,84
279,46	2624,91
279,92	2578,49
280,38	2611,65
280,83	2598,77
281,29	2629,20
281,75	2579,66
282,20	2642,07
282,66	2684,20
283,12	2614,38
283,57	2678,35
284,03	2616,33
284,49	2628,42
284,94	2716,19
285,40	2604,24
285,86	2726,33
286,31	2668,60
286,77	2640,12
287,23	2634,27
287,68	2631,15
288,14	2657,68
288,59	2628,81
289,05	2663,53
289,51	2721,26
289,96	2619,84
290,42	2694,74
290,87	2644,42
291,33	2617,50
291,78	2668,21
292,24	2603,07
292,70	2628,03
293,15	2665,48
293,61	2654,56
294,06	2752,47
294,52	2612,04
294,97	2603,07
295,43	2709,95
295,88	2638,17
296,34	2669,77
296,79	2629,20
297,25	2604,24
297,70	2622,96
298,16	2633,49
298,61	2665,09
299,07	2663,14
299,52	2684,20
299,98	2635,83
300,43	2857,01
300,89	2638,95
301,34	2629,20
301,80	2660,41
302,25	2688,50
302,71	2688,89
303,16	2634,27
303,61	2632,32
304,07	2720,09
304,52	2667,82
304,98	2615,16
305,43	2693,57
305,88	2650,66
306,34	2670,94
306,79	2702,15
307,25	2716,97
307,70	2626,08
308,15	2676,40
308,61	2596,43
309,06	2753,64
309,52	2703,32
309,97	2652,22
310,42	2713,07
310,88	2678,35
311,33	2695,91
311,78	2645,59
312,24	2696,69
312,69	2668,60
313,14	2602,29
313,60	2633,88
314,05	2627,64
314,50	2716,58
314,95	2640,12
315,41	2806,30
315,86	2723,60
316,31	2677,18
316,77	2620,62
317,22	2597,21
317,67	2623,35
318,12	2686,15
318,58	2680,30
319,03	2718,53
319,48	2664,70
319,93	2795,77
320,39	2618,28
320,84	2635,44
321,29	2646,37
321,74	2644,42
322,20	2672,50
322,65	2619,84
323,10	2662,36
323,55	2623,35
324,00	2676,40
324,46	2621,79
324,91	2657,29
325,36	2633,88
325,81	2630,76
326,26	2702,15
326,71	2629,98
327,17	2763,39
327,62	2643,25
328,07	2693,96
328,52	2721,65
328,97	2686,94
329,42	2647,54
329,87	2668,21
330,33	2660,80
330,78	2750,52
331,23	2646,76
331,68	2663,14
332,13	2674,84
332,58	2699,42
333,03	2671,33
333,48	2651,05
333,93	2717,75
334,38	2661,97
334,84	2664,70
335,29	2719,31
335,74	2649,88
336,19	2651,44
336,64	2660,41
337,09	2640,12
337,54	2690,45
337,99	2639,34
338,44	2676,40
338,89	2683,81
339,34	2677,18
339,79	2621,79
340,24	2585,12
340,69	2685,37
341,14	2705,27
341,59	2720,48
342,04	2642,46
342,49	2688,11
342,94	2614,77
343,39	2732,58
343,84	2716,97
344,29	2712,68
344,74	2640,51
345,19	2649,49
345,64	2638,17
346,09	2638,56
346,54	2647,54
346,99	2600,73
347,43	2796,16
347,88	2671,33
348,33	2725,55
348,78	2697,47
349,23	2684,98
349,68	2640,90
350,13	2640,51
350,58	2634,27
351,03	2652,61
351,48	2598,38
351,92	2611,26
352,37	2710,34
352,82	2624,91
353,27	2689,67
353,72	2651,83
354,17	2645,98
354,62	2679,13
355,06	2655,34
355,51	2656,90
355,96	2677,18
356,41	2639,73
356,86	2626,08
357,30	2614,38
357,75	2619,45
358,20	2645,59
358,65	2692,79
359,10	2781,73
359,54	2668,60
359,99	2656,51
360,44	2665,87
360,89	2637,78
361,34	2659,63
361,78	2640,51
362,23	2662,75
362,68	2640,12
363,13	2617,89
363,57	2651,83
364,02	2685,37
364,47	2738,04
364,91	2611,65
365,36	2647,93
365,81	2628,03
366,26	2605,02
366,70	2772,36
367,15	2656,12
367,60	2620,62
368,04	2679,13
368,49	2663,14
368,94	2696,30
369,38	2630,37
369,83	2675,62
370,28	2624,91
370,72	2649,10
371,17	2731,41
371,62	2623,35
372,06	2735,31
372,51	2737,65
372,96	2651,83
373,40	2582,39
373,85	2660,41
374,29	2627,64
374,74	2685,76
375,19	2604,24
375,63	2635,44
376,08	2628,03
376,52	2636,61
376,97	2795,38
377,42	2659,63
377,86	2663,92
378,31	2591,75
378,75	2623,74
379,20	2685,76
379,64	2619,84
380,09	2638,17
380,53	2693,18
380,98	2647,54
381,43	2624,52
381,87	2723,21
382,32	2644,03
382,76	2626,47
383,21	2704,10
383,65	2648,71
384,10	2617,50
384,54	2684,98
384,99	2669,77
385,43	2675,23
385,88	2635,44
386,32	2730,23
386,76	2643,24
387,21	2746,62
387,65	2691,62
388,10	2709,56
388,54	2711,90
388,99	2754,81
389,43	2902,26
389,88	2706,83
390,32	2656,90
390,76	2681,08
391,21	2642,85
391,65	2659,24
392,10	2926,06
392,54	2645,98
392,98	2687,33
393,43	2691,62
393,87	2598,38
394,32	2602,29
394,76	2662,75
395,20	2634,66
395,65	2695,91
396,09	2708,39
396,53	2658,85
396,98	2639,73
397,42	2631,15
397,86	2653,39
398,31	2603,85
398,75	2653,39
399,19	2663,53
399,64	2607,75
400,08	2626,47
400,52	2685,76
400,97	2654,95
401,41	2649,49
401,85	2693,18
402,30	2605,02
402,74	2654,17
403,18	2629,59
403,62	2671,33
404,07	2670,55
404,51	2664,31
404,95	2688,89
405,39	2644,81
405,84	2656,12
406,28	2693,18
406,72	2623,74
407,16	2763,39
407,61	2636,22
408,05	2639,34
408,49	2664,70
408,93	2671,33
409,37	2684,59
409,82	2660,02
410,26	2626,47
410,70	2742,72
411,14	2587,46
411,58	2709,95
412,02	2673,67
412,47	2689,28
412,91	2645,20
413,35	2688,50
413,79	2769,63
414,23	2699,03
414,67	2716,19
415,12	2733,75
415,56	2648,32
416,00	2686,54
416,44	2647,93
416,88	2680,30
417,32	2678,35
417,76	2660,41
418,20	2759,88
418,64	2595,65
419,08	2672,11
419,53	2644,03
419,97	2572,64
420,41	2608,53
420,85	2604,24
421,29	2757,15
421,73	2625,69
422,17	2649,88
422,61	2680,69
423,05	2615,16
423,49	2648,71
423,93	2658,07
424,37	2649,88
424,81	2777,44
425,25	2662,75
425,69	2665,09
426,13	2619,06
426,57	2660,41
427,01	2649,10
427,45	2643,24
427,89	2659,63
428,33	2620,62
428,77	2651,05
429,21	2648,32
429,65	2596,04
430,09	2632,71
430,53	2658,85
430,97	2686,54
431,41	2697,86
431,85	2727,11
432,29	2612,82
432,73	2661,58
433,16	2656,12
433,60	2650,27
434,04	2674,84
434,48	2704,88
434,92	2676,79
435,36	2620,23
435,80	2725,16
436,24	2651,83
436,68	2621,01
437,12	2667,43
437,55	2673,67
437,99	2692,79
438,43	2628,42
438,87	2675,62
439,31	2671,72
439,75	2617,89
440,18	2666,26
440,62	2658,07
441,06	2676,40
441,50	2709,95
441,94	2706,83
442,38	2618,67
442,81	2615,94
443,25	2607,36
443,69	2656,51
444,13	2606,97
444,57	2631,54
445,00	2669,77
445,44	2628,42
445,88	2732,19
446,32	2700,20
446,75	2661,97
447,19	2613,60
447,63	2774,32
448,07	2645,59
448,50	2685,76
448,94	2638,56
449,38	2624,13
449,82	2664,31
450,25	2589,80
450,69	2635,44
451,13	2776,66
451,56	2602,29
452,00	2693,96
452,44	2653,00
452,87	2605,41
453,31	2656,90
453,75	2612,43
454,18	2647,15
454,62	2688,50
455,06	2634,27
455,49	2677,57
455,93	2612,04
456,37	2663,53
456,80	2647,93
457,24	2619,06
457,68	2708,78
458,11	2663,14
458,55	2667,43
458,98	2709,17
459,42	2679,52
459,86	2696,69
460,29	2676,40
460,73	2748,57
461,16	2636,22
461,60	2707,22
462,04	2721,65
462,47	2663,53
462,91	2645,20
463,34	2614,38
463,78	2718,53
464,21	2633,49
464,65	2697,86
465,08	2629,20
465,52	2610,48
465,96	2684,20
466,39	2672,89
466,83	2725,94
467,26	2696,30
467,70	2648,32
468,13	2630,76
468,57	2606,97
469,00	2718,92
469,44	2626,47
469,87	2616,72
470,31	2615,55
470,74	2688,11
471,17	2712,29
471,61	2631,15
472,04	2704,10
472,48	2727,11
472,91	2631,93
473,35	2626,47
473,78	2708,78
474,22	2656,51
474,65	2764,56
475,08	2670,94
475,52	2651,44
475,95	2687,72
476,39	2621,40
476,82	2647,54
477,25	2646,76
477,69	2659,63
478,12	2713,85
478,56	2797,33
478,99	2688,89
479,42	2680,30
479,86	2642,85
480,29	2639,34
480,72	2623,35
481,16	2633,10
481,59	2699,03
482,02	2649,49
482,46	2736,09
482,89	2653,78
483,32	2660,02
483,76	2650,66
484,19	2678,35
484,62	2613,21
485,06	2762,22
485,49	2596,82
485,92	2664,70
486,35	2728,28
486,79	2638,95
487,22	2820,35
487,65	2878,08
488,09	2636,22
488,52	2641,29
488,95	2651,05
489,38	2705,66
489,82	2679,52
490,25	2670,55
490,68	2617,89
491,11	2601,51
491,54	2599,16
491,98	2635,44
492,41	2654,17
492,84	2677,18
493,27	2649,88
493,70	2631,93
494,14	2679,91
494,57	2686,15
495,00	2616,33
495,43	2676,79
495,86	2666,26
496,30	2732,97
496,73	2658,46
497,16	2637,00
497,59	2621,79
498,02	2641,29
498,45	2628,42
498,88	2664,31
499,32	2618,28
499,75	2635,44
500,18	2681,86
500,61	2627,64
501,04	2745,06
501,47	2643,64
501,90	2649,10
502,33	2628,42
502,76	2616,33
503,19	2709,95
503,62	2611,65
504,06	2610,87
504,49	2649,49
504,92	2654,17
505,35	2649,88
505,78	2660,80
506,21	2645,20
506,64	2652,22
507,07	2645,98
507,50	2649,49
507,93	2608,92
508,36	2647,54
508,79	2656,12
509,22	2638,56
509,65	2674,84
510,08	2676,01
510,51	2679,52
510,94	2699,42
511,37	2738,04
511,80	2669,38
512,23	2657,29
512,66	2617,50
513,09	2639,73
513,52	2628,42
513,95	2695,91
514,38	2731,02
514,81	2686,15
515,23	2695,13
515,66	2741,94
516,09	2695,52
516,52	2654,17
516,95	2687,33
517,38	2684,98
517,81	2658,85
518,24	2730,23
518,67	2762,61
519,10	2642,46
519,53	2643,64
519,95	2672,50
520,38	2653,78
520,81	2667,82
521,24	2619,06
521,67	2624,52
522,10	2613,99
522,53	2622,96
522,95	2664,31
523,38	2730,23
523,81	2654,95
524,24	2633,10
524,67	2728,28
525,09	2647,93
525,52	2651,83
525,95	2621,01
526,38	2647,15
526,81	2649,88
527,23	2691,62
527,66	2692,40
528,09	2677,96
528,52	2668,99
528,95	2657,29
529,37	2692,79
529,80	2647,54
530,23	2644,81
530,66	2662,36
531,08	2652,22
531,51	2668,21
531,94	2695,52
532,37	2633,88
532,79	2595,65
533,22	2653,39
533,65	2645,59
534,07	2672,50
534,50	2646,37
534,93	2756,37
535,35	2638,17
535,78	2633,88
536,21	2674,84
536,63	2732,58
537,06	2667,43
537,49	2686,94
537,91	2637,78
538,34	2629,98
538,77	2695,52
539,19	2632,71
539,62	2619,06
540,05	2693,18
540,47	2635,44
540,90	2660,41
541,33	2663,92
541,75	2658,46
542,18	2669,77
542,60	2707,22
543,03	2668,21
543,45	2589,80
543,88	2648,71
544,31	2677,57
544,73	2641,68
545,16	2690,84
545,58	2620,23
546,01	2626,08
546,43	2695,52
546,86	2621,01
547,29	2593,70
547,71	2665,87
548,14	2649,49
548,56	2695,91
548,99	2656,51
549,41	2697,86
549,84	2599,95
550,26	2755,59
550,69	2669,38
551,11	2600,73
551,54	2665,87
551,96	2635,83
552,39	2670,94
552,81	2656,90
553,24	2714,24
553,66	2643,24
554,08	2643,64
554,51	2698,64
554,93	2731,02
555,36	2633,10
555,78	2651,05
556,21	2605,80
556,63	2629,59
557,06	2668,99
557,48	2609,31
557,90	2624,52
558,33	2735,31
558,75	2635,44
559,18	2738,43
559,60	2754,81
560,02	2694,35
560,45	2609,70
560,87	2681,47
561,29	2671,33
561,72	2612,82
562,14	2646,76
562,57	2658,46
562,99	2657,68
563,41	2648,71
563,84	2678,35
564,26	2635,05
564,68	2621,79
565,11	2742,33
565,53	2633,49
565,95	2643,64
566,37	2622,96
566,80	2610,87
567,22	2641,29
567,64	2637,78
568,07	2646,76
568,49	2881,20
568,91	2661,19
569,33	2758,32
569,76	2628,42
570,18	2684,59
570,60	2678,74
571,03	2721,26
571,45	2658,46
571,87	2697,47
572,29	2628,81
572,71	2731,02
573,14	2632,71
573,56	2658,07
573,98	2640,51
574,40	2725,16
574,83	2629,20
575,25	2632,32
575,67	2653,39
576,09	2608,92
576,51	2622,96
576,93	2662,75
577,36	2674,45
577,78	2649,88
578,20	2604,24
578,62	2691,62
579,04	2615,94
579,46	2626,08
579,89	2691,62
580,31	2623,74
580,73	2637,39
581,15	2635,44
581,57	2606,97
581,99	2608,92
582,41	2663,53
582,83	2749,74
583,25	2632,32
583,68	2688,89
584,10	2640,90
584,52	2613,21
584,94	2611,26
585,36	2613,60
585,78	2606,58
586,20	2592,53
586,62	2623,74
587,04	2621,79
587,46	2633,10
587,88	2630,76
588,30	2628,81
588,72	2634,66
589,14	2612,04
589,56	2579,27
589,98	2625,69
590,40	2641,68
590,82	2616,33
591,24	2613,21
591,66	2651,05
592,08	2617,50
592,50	2688,50
592,92	2628,81
593,34	2635,05
593,76	2614,77
594,18	2653,78
594,60	2649,49
595,02	2662,36
595,44	2668,21
595,86	2750,91
596,28	2696,69
596,70	2630,76
597,12	2602,68
597,54	2637,00
597,96	2637,78
598,37	2675,23
598,79	2635,83
599,21	2678,74
599,63	2686,94
600,05	2614,77
600,47	2708,78
600,89	2639,34
601,31	2628,81
601,73	2620,23
602,14	2771,58
602,56	2699,81
602,98	2770,02
603,40	2736,09
603,82	2644,42
604,24	2603,46
604,65	2665,48
605,07	2714,24
605,49	2591,75
605,91	2661,97
606,33	2717,36
606,75	2667,04
607,16	2666,65
607,58	2640,12
608,00	2635,83
608,42	2649,88
608,83	2635,44
609,25	2735,31
609,67	2712,29
610,09	2627,64
610,51	2640,90
610,92	2634,27
611,34	2682,64
611,76	2637,78
612,17	2646,37
612,59	2683,42
613,01	2643,25
613,43	2604,63
613,84	2656,90
614,26	2653,78
614,68	2644,81
615,10	2643,64
615,51	2654,95
615,93	2675,62
616,35	2658,85
616,76	2646,37
617,18	2626,08
617,60	2643,64
618,01	2613,60
618,43	2659,24
618,85	2610,48
619,26	2633,10
619,68	2660,41
620,09	2655,73
620,51	2675,62
620,93	2669,77
621,34	2628,81
621,76	2640,90
622,18	2661,19
622,59	2696,69
623,01	2717,36
623,42	2706,83
623,84	2684,98
624,26	2640,12
624,67	2673,28
625,09	2739,60
625,50	2623,35
625,92	2605,80
626,33	2695,13
626,75	2674,06
627,17	2699,42
627,58	2738,04
628,00	2656,90
628,41	2664,31
628,83	2667,82
629,24	2652,61
629,66	2694,35
630,07	2664,31
630,49	2671,72
630,90	2733,36
631,32	2740,77
631,73	2649,49
632,15	2671,33
632,56	2608,53
632,98	2571,47
633,39	2629,98
633,81	2614,38
634,22	2628,42
634,63	2662,36
635,05	2599,16
635,46	2603,46
635,88	2679,91
636,29	2609,70
636,71	2648,71
637,12	2739,99
637,54	2673,67
637,95	2647,15
638,36	2710,73
638,78	2606,97
639,19	2609,31
639,61	2626,47
640,02	2626,08
640,43	2647,15
640,85	2624,13
641,26	2632,71
641,67	2645,98
642,09	2782,12
642,50	2623,74
642,91	2667,04
643,33	2608,92
643,74	2652,22
644,15	2643,64
644,57	2679,13
644,98	2680,30
645,39	2631,93
645,81	2661,97
646,22	2644,03
646,63	2711,90
647,05	2633,88
647,46	2674,06
647,87	2664,70
648,29	2701,37
648,70	2688,50
649,11	2644,42
649,52	2624,91
649,94	2695,52
650,35	2649,88
650,76	2651,44
651,17	2668,60
651,59	2688,89
652,00	2652,61
652,41	2699,42
652,82	2681,86
653,24	2635,44
653,65	2665,87
654,06	2676,01
654,47	2658,85
654,88	2750,91
655,30	2670,16
655,71	2642,85
656,12	2623,74
656,53	2589,02
656,94	2589,80
657,35	2741,16
657,77	2667,82
658,18	2622,18
658,59	2761,05
659,00	2622,96
659,41	2687,72
659,82	2676,01
660,23	2642,07
660,65	2678,35
661,06	2738,04
661,47	2682,64
661,88	2622,96
662,29	2654,95
662,70	2708,00
663,11	2649,10
663,52	2615,94
663,93	2635,44
664,34	2710,73
664,76	2649,10
665,17	2661,19
665,58	2642,46
665,99	2669,77
666,40	2625,69
666,81	2702,54
667,22	2650,66
667,63	2704,49
668,04	2661,58
668,45	2679,91
668,86	2628,42
669,27	2635,83
669,68	2758,71
670,09	2645,98
670,50	2669,77
670,91	2620,62
671,32	2707,61
671,73	2651,44
672,14	2688,89
672,55	2644,81
672,96	2633,10
673,37	2608,92
673,78	2643,64
674,19	2674,45
674,60	2682,64
675,01	2653,78
675,42	2706,83
675,82	2692,40
676,23	2684,98
676,64	2807,08
677,05	2690,45
677,46	2780,17
677,87	2687,33
678,28	2706,44
678,69	2647,93
679,10	2674,06
679,51	2727,11
679,91	2720,48
680,32	2647,15
680,73	2667,82
681,14	2622,57
681,55	2642,85
681,96	2713,07
682,37	2616,33
682,78	2639,73
683,18	2641,68
683,59	2649,10
684,00	2777,44
684,41	2621,79
684,82	2645,20
685,22	2743,11
685,63	2695,91
686,04	2660,80
686,45	2685,37
686,86	2723,99
687,26	2637,39
687,67	2677,96
688,08	2626,08
688,49	2655,34
688,90	2718,14
689,30	2774,71
689,71	2653,39
690,12	2677,18
690,53	2674,84
690,93	2659,63
691,34	2636,22
691,75	2640,12
692,15	2624,13
692,56	2716,58
692,97	2667,04
693,38	2673,28
693,78	2634,66
694,19	2633,88
694,60	2640,90
695,00	2615,94
695,41	2629,20
695,82	2633,10
696,22	2677,57
696,63	2667,82
697,04	2702,93
697,44	2640,12
697,85	2636,61
698,26	2688,89
698,66	2739,60
699,07	2672,50
699,48	2626,08
699,88	2668,99
700,29	2745,84
700,69	2670,94
701,10	2680,30
701,51	2629,20
701,91	2661,58
702,32	2698,64
702,72	2737,65
703,13	2731,80
703,54	2616,33
703,94	2710,34
704,35	2672,11
704,75	2601,90
705,16	2659,63
705,56	2650,66
705,97	2673,28
706,37	2662,75
706,78	2688,50
707,18	2633,10
707,59	2617,89
707,99	2616,72
708,40	2616,33
708,81	2629,59
709,21	2734,53
709,62	2648,32
710,02	2621,79
710,42	2641,29
710,83	2669,77
711,23	2653,78
711,64	2682,25
712,04	2681,47
712,45	2653,78
712,85	2654,95
713,26	2698,25
713,66	2615,55
714,07	2656,51
714,47	2653,78
714,87	2638,95
715,28	2640,12
715,68	2626,47
716,09	2634,27
716,49	2662,36
716,90	2601,90
717,30	2614,77
717,70	2622,18
718,11	2664,31
718,51	2703,32
718,91	2637,00
719,32	2640,51
719,72	2603,07
720,13	2648,71
720,53	2628,03
720,93	2694,74
721,34	2637,00
721,74	2693,96
722,14	2697,47
722,55	2694,74
722,95	2660,41
723,35	2664,31
723,76	2679,91
724,16	2609,70
724,56	2637,78
724,97	2619,06
725,37	2642,85
725,77	2652,22
726,17	2640,90
726,58	2602,29
726,98	2651,05
727,38	2619,45
727,78	2601,90
728,19	2603,07
728,59	2692,01
728,99	2639,34
729,39	2598,77
729,80	2599,95
730,20	2605,02
730,60	2724,77
731,00	2645,20
731,41	2640,12
731,81	2644,81
732,21	2712,29
732,61	2708,78
733,01	2651,05
733,42	2724,38
733,82	2662,75
734,22	2675,62
734,62	2776,27
735,02	2768,85
735,42	2615,94
735,83	2706,05
736,23	2720,09
736,63	2685,76
737,03	2754,42
737,43	2818,79
737,83	2676,01
738,23	2681,08
738,64	2725,94
739,04	2658,85
739,44	2663,92
739,84	2681,47
740,24	2654,95
740,64	2636,61
741,04	2672,89
741,44	2623,74
741,84	2636,22
742,24	2641,29
742,64	2676,01
743,05	2624,91
743,45	2639,73
743,85	2612,82
744,25	2638,17
744,65	2631,54
745,05	2709,17
745,45	2667,04
745,85	2756,37
746,25	2748,96
746,65	2640,51
747,05	2683,03
747,45	2690,84
747,85	2682,25
748,25	2661,97
748,65	2683,03
749,05	2602,68
749,45	2622,18
749,85	2623,74
750,25	2633,10
750,65	2617,89
751,05	2614,77
751,45	2600,34
751,85	2637,39
752,25	2626,08
752,64	2618,28
753,04	2668,21
753,44	2670,16
753,84	2659,24
754,24	2629,20
754,64	2633,10
755,04	2724,38
755,44	2625,30
755,84	2662,75
756,24	2607,75
756,64	2640,51
757,03	2774,32
757,43	2674,45
757,83	2608,14
758,23	2614,38
758,63	2622,96
759,03	2728,28
759,43	2636,61
759,82	2656,12
760,22	2646,37
760,62	2696,30
761,02	2688,11
761,42	2697,08
761,82	2698,25
762,21	2692,01
762,61	2649,88
763,01	2757,93
763,41	2699,03
763,81	2682,64
764,20	2605,02
764,60	2704,10
765,00	2647,54
765,40	2718,53
765,79	2679,13
766,19	2673,28
766,59	2655,34
766,99	2622,96
767,38	2669,77
767,78	2654,17
768,18	2595,26
768,58	2676,40
768,97	2681,47
769,37	2714,63
769,77	2610,48
770,16	2601,90
770,56	2649,88
770,96	2590,19
771,36	2610,09
771,75	2652,22
772,15	2716,58
772,55	2703,32
772,94	2633,10
773,34	2606,19
773,74	2597,99
774,13	2667,04
774,53	2619,06
774,93	2665,87
775,32	2680,69
775,72	2612,82
776,11	2643,64
776,51	2585,12
776,91	2609,31
777,30	2635,83
777,70	2624,52
778,10	2673,67
778,49	2633,49
778,89	2660,41
779,28	2650,27
779,68	2581,61
780,07	2630,37
780,47	2640,90
780,87	2642,46
781,26	2651,44
781,66	2677,96
782,05	2599,95
782,45	2671,33
782,84	2650,66
783,24	2633,49
783,63	2682,25
784,03	2665,48
784,42	2653,39
784,82	2709,17
785,21	2687,33
785,61	2729,45
786,00	2640,90
786,40	2585,12
786,79	2606,97
787,19	2658,07
787,58	2679,13
787,98	2673,67
788,37	2631,15
788,77	2642,85
789,16	2703,32
789,56	2629,20
789,95	2639,34
790,35	2798,89
790,74	2784,07
791,13	2820,74
791,53	2657,29
791,92	2672,11
792,32	2679,91
792,71	2615,94
793,10	2650,66
793,50	2692,01
793,89	2642,46
794,29	2635,05
794,68	2659,24
795,07	2647,15
795,47	2675,23
795,86	2613,60
796,26	2624,91
796,65	2610,09
797,04	2624,13
797,44	2621,79
797,83	2612,04
798,22	2624,13
798,62	2797,33
799,01	2661,58
799,40	2631,15
799,80	2712,29
800,19	2627,25
800,58	2663,92
800,97	2670,16
801,37	2669,77
801,76	2684,20
802,15	2660,02
802,55	2661,97
802,94	2645,59
803,33	4477,44
803,72	2816,44
804,12	2664,70
804,51	2665,48
804,90	2681,08
805,29	2653,00
805,69	2612,43
806,08	2638,56
806,47	2584,34
806,86	2694,74
807,26	2638,56
807,65	2592,14
808,04	2667,43
808,43	2678,35
808,82	2693,96
809,22	2687,72
809,61	2626,86
810,00	2717,75
810,39	2707,22
810,78	2687,72
811,17	2707,22
811,57	2692,79
811,96	2599,95
812,35	2629,98
812,74	2669,38
813,13	2653,00
813,52	2587,46
813,91	2636,22
814,30	2631,54
814,70	2715,41
815,09	2648,71
815,48	2625,69
815,87	2704,10
816,26	2632,32
816,65	2782,12
817,04	2666,65
817,43	2685,76
817,82	2594,87
818,21	2710,34
818,60	2603,85
819,00	2673,67
819,39	2665,87
819,78	2612,43
820,17	2674,84
820,56	2629,59
820,95	2593,31
821,34	2654,95
821,73	2594,09
822,12	2638,17
822,51	2669,38
822,90	2733,36
823,29	2603,46
823,68	2742,33
824,07	2621,79
824,46	2642,07
824,85	2640,12
825,24	2663,92
825,63	2641,68
826,02	2693,57
826,41	2654,95
826,80	2600,34
827,18	2612,82
827,57	2636,22
827,96	2699,42
828,35	2676,01
828,74	2652,22
829,13	2677,18
829,52	2704,49
829,91	2707,61
830,30	2635,83
830,69	2592,92
831,08	2616,33
831,47	2669,38
831,85	2764,56
832,24	2598,38
832,63	2674,45
833,02	2624,13
833,41	2672,89
833,80	2732,19
834,19	2688,11
834,57	2611,65
834,96	2599,95
835,35	2679,13
835,74	2658,46
836,13	2702,54
836,52	2756,37
836,90	2637,00
837,29	2737,26
837,68	2660,02
838,07	2603,07
838,46	2654,95
838,84	2683,03
839,23	2703,32
839,62	2729,06
840,01	2687,72
840,40	2656,51
840,78	2651,83
841,17	2712,29
841,56	2628,42
841,95	2705,27
842,33	2664,31
842,72	2637,00
843,11	2632,71
843,50	2614,77
843,88	2655,34
844,27	2660,41
844,66	2652,22
845,04	2708,78
845,43	2663,14
845,82	2669,38
846,20	2626,47
846,59	2629,59
846,98	2643,64
847,37	2727,11
847,75	2696,69
848,14	2784,46
848,53	2768,85
848,91	2744,67
849,30	2681,47
849,68	2647,54
850,07	2707,22
850,46	2698,25
850,84	2695,91
851,23	2687,72
851,62	2637,00
852,00	2628,81
852,39	2598,38
852,77	2628,03
853,16	2622,96
853,55	2643,64
853,93	2606,19
854,32	2636,22
854,70	2627,25
855,09	2601,12
855,47	2628,42
855,86	2696,30
856,25	2667,43
856,63	2703,71
857,02	2675,62
857,40	2686,54
857,79	2647,93
858,17	2686,54
858,56	2655,73
858,94	2660,02
859,33	2670,55
859,71	2609,70
860,10	2686,54
860,48	2637,78
860,87	2656,12
861,25	2627,25
861,64	2695,91
862,02	2653,39
862,41	2763,39
862,79	2650,27
863,18	2704,10
863,56	2663,92
863,95	2774,32
864,33	2606,97
864,71	2661,97
865,10	2619,45
865,48	2610,09
865,87	2674,06
866,25	2628,81
866,64	2680,69
867,02	2674,06
867,40	2631,93
867,79	2606,19
868,17	2658,07
868,56	2648,71
868,94	2602,68
869,32	2654,56
869,71	2706,44
870,09	2768,46
870,47	2657,68
870,86	2722,43
871,24	2668,60
871,62	2646,37
872,01	2639,73
872,39	2623,74
872,77	2685,76
873,16	2706,83
873,54	2765,34
873,92	2664,31
874,31	2619,45
874,69	2623,74
875,07	2647,54
875,46	2665,09
875,84	2810,20
876,22	2663,92
876,60	2621,79
876,99	2670,94
877,37	2663,14
877,75	2669,38
878,14	2641,68
878,52	2596,04
878,90	2647,93
879,28	2642,85
879,66	2626,08
880,05	2653,00
880,43	2595,65
880,81	2635,05
881,19	2605,41
881,58	2653,39
881,96	2653,78
882,34	2738,82
882,72	2632,32
883,10	2667,04
883,49	2627,25
883,87	2620,23
884,25	2738,43
884,63	2702,54
885,01	2610,87
885,39	2661,58
885,78	2644,81
886,16	2651,05
886,54	2714,63
886,92	2695,52
887,30	2708,39
887,68	2644,42
888,06	2660,02
888,44	2673,28
888,83	2625,69
889,21	2699,03
889,59	2659,63
889,97	2692,40
890,35	2776,66
890,73	2650,27
891,11	2804,74
891,49	2615,16
891,87	2617,50
892,25	2626,47
892,63	2751,30
893,01	2645,98
893,39	2676,01
893,77	2663,14
894,16	2697,86
894,54	2615,55
894,92	2635,44
895,30	2653,39
895,68	2621,79
896,06	2724,38
896,44	2663,14
896,82	2615,94
897,20	2622,18
897,58	2654,95
897,96	2637,39
898,34	2690,45
898,72	2602,29
899,10	2736,09
899,47	2625,30
899,85	2702,54
900,23	2658,07
900,61	2672,50
900,99	2713,85
901,37	2661,58
901,75	2633,49
902,13	2734,53
902,51	2628,81
902,89	2604,63
903,27	2633,49
903,65	2672,89
904,03	2633,10
904,40	2724,38
904,78	2746,62
905,16	2650,66
905,54	2613,60
905,92	2641,29
906,30	2614,77
906,68	2660,80
907,06	2636,61
907,43	2702,15
907,81	2652,22
908,19	2632,71
908,57	2607,36
908,95	2649,10
909,33	2645,20
909,70	2655,34
910,08	2668,21
910,46	2674,84
910,84	2685,37
911,22	2642,46
911,59	2683,42
911,97	2635,83
912,35	2638,95
912,73	2676,40
913,11	2600,73
913,48	2631,15
913,86	2618,28
914,24	2657,29
914,62	2666,65
914,99	2658,46
915,37	2620,62
915,75	2689,28
916,13	2629,20
916,50	2801,62
916,88	2638,95
917,26	2708,00
917,63	2648,71
918,01	2677,96
918,39	2650,66
918,77	2634,66
919,14	2723,21
919,52	2669,77
919,90	2590,97
920,27	2635,83
920,65	2745,06
921,03	2672,11
921,40	2647,15
921,78	2622,18
922,16	2711,51
922,53	2625,69
922,91	2628,81
923,28	2569,52
923,66	2693,96
924,04	2679,13
924,41	2592,92
924,79	2640,90
925,17	2642,07
925,54	2607,36
925,92	2631,54
926,29	2605,02
926,67	2625,69
927,05	2630,76
927,42	2660,41
927,80	2694,35
928,17	2644,03
928,55	2681,47
928,92	2608,53
929,30	2625,30
929,67	2688,11
930,05	2667,04
930,43	2636,61
930,80	2736,48
931,18	2625,69
931,55	2660,41
931,93	2692,79
932,30	2830,88
932,68	2622,18
933,05	2669,77
933,43	2638,17
933,80	2611,65
934,18	2634,66
934,55	2669,38
934,92	2816,83
935,30	2646,37
935,67	2622,96
936,05	2700,98
936,42	2624,52
936,80	2638,56
937,17	2622,18
937,55	2594,09
937,92	2704,49
938,29	2623,74
938,67	2706,83
939,04	2675,23
939,42	2713,46
939,79	2667,04
940,16	2658,85
940,54	2728,28
940,91	2647,15
941,29	2604,63
941,66	2668,99
942,03	2631,93
942,41	2699,42
942,78	2609,70
943,15	2661,97
943,53	2600,34
943,90	2617,11
944,27	2631,15
944,65	2645,59
945,02	2616,72
945,39	2654,95
945,77	2696,30
946,14	2681,08
946,51	2639,34
946,89	2610,87
947,26	2605,41
947,63	2642,46
948,01	2661,97
948,38	2651,83
948,75	2651,83
949,12	2715,41
949,50	2720,87
949,87	2625,30
950,24	2625,69
950,61	2660,80
950,99	2660,41
951,36	2670,16
951,73	2575,37
952,10	2608,53
952,48	2635,83
952,85	2612,82
953,22	2663,14
953,59	2620,23
953,96	2759,49
954,34	2686,54
954,71	2625,30
955,08	2706,05
955,45	2647,15
955,82	2739,21
956,20	2666,26
956,57	2603,85
956,94	2631,54
957,31	2675,62
957,68	2655,34
958,05	2643,25
958,42	2670,55
958,80	2639,34
959,17	2656,51
959,54	2679,91
959,91	2604,63
960,28	2685,76
960,65	2685,37
961,02	2626,86
961,39	2731,41
961,76	2662,75
962,14	2698,64
962,51	2667,43
962,88	2633,49
963,25	2648,32
963,62	2631,15
963,99	2647,93
964,36	2622,18
964,73	2606,19
965,10	2703,32
965,47	2601,12
965,84	2653,39
966,21	2665,09
966,58	2734,92
966,95	2644,42
967,32	2639,34
967,69	2656,51
968,06	2710,73
968,43	2622,57
968,80	2743,11
969,17	2626,47
969,54	2629,59
969,91	2675,23
970,28	2662,75
970,65	2623,74
971,02	2653,00
971,39	2589,02
971,76	2645,20
972,13	2621,01
972,50	2690,45
972,87	2708,78
973,24	2603,46
973,61	2608,14
973,98	2663,92
974,34	2647,15
974,71	2714,63
975,08	2653,78
975,45	2659,63
975,82	2656,12
976,19	2690,84
976,56	2693,57
976,93	2619,06
977,30	2666,65
977,66	2636,22
978,03	2658,85
978,40	2625,69
978,77	2713,07
979,14	2617,11
979,51	2606,97
979,88	2644,42
980,24	2684,59
980,61	2681,47
980,98	2582,00
981,35	2662,36
981,72	2670,94
982,08	2681,08
982,45	2591,75
982,82	2707,61
983,19	2648,71
983,56	2719,70
983,92	2698,64
984,29	2643,64
984,66	2597,60
985,03	2682,64
985,39	2736,09
985,76	2689,67
986,13	2646,37
986,50	2694,35
986,86	2638,95
987,23	2607,75
987,60	2608,14
987,97	2748,57
988,33	2651,44
988,70	2645,20
989,07	2662,75
989,43	2644,42
989,80	2619,45
990,17	2625,30
990,53	2606,97
990,90	2682,25
991,27	2638,95
991,63	2654,17
992,00	2628,03
992,37	2652,22
992,73	2662,36
993,10	2642,07
993,47	2605,41
993,83	2707,22
994,20	2638,17
994,57	2708,39
994,93	2640,90
995,30	2752,08
995,66	2645,98
996,03	2643,64
996,40	2650,27
996,76	2656,12
997,13	2631,54
997,49	2634,66
997,86	2616,72
998,23	2660,41
998,59	2668,99
998,96	2628,03
999,32	2642,07
999,69	2632,71
1000,05	2615,55
1000,42	2654,17
1000,78	2591,36
1001,15	2617,50
1001,51	2616,72
1001,88	2617,89
1002,24	2667,43
1002,61	2637,00
1002,97	2720,48
1003,34	2644,03
1003,70	2637,00
1004,07	2709,95
1004,43	2647,54
1004,80	2649,49
1005,16	2686,54
1005,53	2704,10
1005,89	2644,42
1006,26	2605,02
1006,62	2617,50
1006,99	2735,70
1007,35	2672,50
1007,72	2688,89
1008,08	2657,29
1008,44	2669,38
1008,81	2591,75
1009,17	2628,81
1009,54	2619,84
1009,90	2626,08
1010,26	2623,74
1010,63	2630,76
1010,99	2638,17
1011,36	2633,10
1011,72	2628,42
1012,08	2666,26
1012,45	2645,98
1012,81	2644,81
1013,17	2730,62
1013,54	2612,43
1013,90	2606,97
1014,26	2596,82
1014,63	2563,67
1014,99	2643,25
1015,35	2666,26
1015,72	2702,93
1016,08	2637,39
1016,44	2660,41
1016,81	2647,54
1017,17	2636,61
1017,53	2615,55
1017,90	2770,41
1018,26	2645,20
1018,62	2612,82
1018,98	2610,09
1019,35	2660,41
1019,71	2604,24
1020,07	2674,45
1020,43	2655,34
1020,80	2633,10
1021,16	2623,35
1021,52	2676,01
1021,88	2663,92
1022,25	2635,83
1022,61	2654,56
1022,97	2627,25
1023,33	2637,00
1023,70	2644,42
1024,06	2585,12
1024,42	2695,13
1024,78	2612,82
1025,14	2624,52
1025,50	2612,43
1025,87	2704,49
1026,23	2658,07
1026,59	2591,36
1026,95	2626,47
1027,31	2589,02
1027,67	2639,34
1028,04	2631,93
1028,40	2638,95
1028,76	2646,37
1029,12	2605,41
1029,48	2645,20
1029,84	2622,57
1030,20	2646,37
1030,56	2643,64
1030,92	2674,45
1031,29	2641,29
1031,65	2626,08
1032,01	2618,28
1032,37	2598,38
1032,73	2666,26
1033,09	2665,48
1033,45	2717,36
1033,81	2588,24
1034,17	2668,21
1034,53	2598,77
1034,89	2650,27
1035,25	2650,27
1035,61	2650,27
>>>>>End Processed Spectral Data<<<<<
