SpectraSuite Data File
++++++++++++++++++++++++++++++++++++
Date: Wed Feb 24 13:00:36 EET 2016
User: OO Maya
Dark Spectrum Present: No
Reference Spectrum Present: No
Number of Sampled Component Spectra: 1
Spectrometers: FLMS00673
Integration Time (usec): 1000000 (FLMS00673)
Spectra Averaged: 6 (FLMS00673)
Boxcar Smoothing: 0 (FLMS00673)
Correct for Electrical Dark: No (FLMS00673)
Strobe/Lamp Enabled: No (FLMS00673)
Correct for Detector Non-linearity: No (FLMS00673)
Correct for Stray Light: No (FLMS00673)
Number of Pixels in Processed Spectrum: 2048
>>>>>Begin Processed Spectral Data<<<<<
188,41	2197,37
188,88	2197,37
189,35	2197,37
189,82	2112,72
190,28	2212,59
190,75	2186,45
191,22	2220,00
191,68	2208,69
192,15	2216,49
192,62	2351,85
193,08	2239,50
193,55	2308,16
194,02	2245,35
194,48	2299,97
194,95	2352,63
195,42	2332,34
195,88	2344,44
196,35	2390,86
196,82	2362,38
197,28	2446,64
197,75	2447,81
198,22	2420,89
198,68	2535,58
199,15	2493,84
199,61	2528,17
200,08	2593,70
200,55	2511,39
201,01	2527,00
201,48	2633,49
201,94	2605,02
202,41	2546,11
202,88	2603,46
203,34	2611,65
203,81	3159,33
204,27	2673,28
204,74	2661,58
205,20	2649,49
205,67	2638,95
206,13	2643,25
206,60	2665,87
207,06	2612,43
207,53	2656,51
208,00	2662,75
208,46	2679,13
208,93	2727,50
209,39	2676,79
209,86	2654,56
210,32	2730,23
210,78	2806,69
211,25	2631,15
211,71	2684,59
212,18	2615,16
212,64	2610,87
213,11	2728,67
213,57	2651,44
214,04	2674,45
214,50	2618,67
214,97	2942,05
215,43	2753,64
215,89	2629,20
216,36	2624,13
216,82	2603,46
217,29	2589,41
217,75	2604,24
218,22	2630,76
218,68	2702,15
219,14	2680,69
219,61	2686,15
220,07	2634,27
220,53	2666,26
221,00	2588,24
221,46	2587,85
221,93	2673,28
222,39	2589,80
222,85	2679,13
223,32	2610,09
223,78	2585,12
224,24	2820,74
224,71	2647,15
225,17	2610,87
225,63	2633,49
226,10	2600,73
226,56	2613,21
227,02	2600,73
227,48	2595,65
227,95	2574,98
228,41	2600,34
228,87	2586,68
229,34	2739,21
229,80	2608,92
230,26	2590,97
230,72	2659,24
231,19	2688,11
231,65	2603,07
232,11	2635,44
232,57	2616,72
233,04	2562,89
233,50	2614,38
233,96	2607,36
234,42	2646,76
234,88	2639,73
235,35	2626,86
235,81	2640,12
236,27	2586,68
236,73	2649,49
237,19	2637,78
237,66	2666,26
238,12	2584,73
238,58	2616,33
239,04	2630,37
239,50	2703,71
239,96	2632,32
240,43	2606,97
240,89	2691,23
241,35	2624,91
241,81	2626,47
242,27	2638,17
242,73	2606,97
243,19	2684,20
243,66	2635,44
244,12	2635,44
244,58	2712,29
245,04	2594,48
245,50	2591,75
245,96	2638,95
246,42	2619,84
246,88	2657,29
247,34	2774,32
247,80	2618,28
248,26	2833,61
248,72	2645,20
249,18	2729,06
249,65	2596,04
250,11	2695,13
250,57	2577,71
251,03	2616,72
251,49	2589,80
251,95	2639,34
252,41	2614,38
252,87	2652,61
253,33	2655,73
253,79	2682,64
254,25	2649,88
254,71	2662,75
255,17	2592,92
255,63	2637,00
256,09	2615,94
256,55	2635,05
257,01	2727,50
257,47	2712,29
257,92	2698,64
258,38	2731,41
258,84	2738,82
259,30	2661,19
259,76	2617,11
260,22	2682,25
260,68	2634,66
261,14	2614,77
261,60	2637,00
262,06	2660,41
262,52	2754,03
262,98	2660,02
263,43	2687,72
263,89	2661,58
264,35	2613,21
264,81	2608,14
265,27	2628,42
265,73	2620,23
266,19	2629,98
266,65	2663,53
267,10	2594,87
267,56	2602,29
268,02	2625,69
268,48	2590,97
268,94	2693,96
269,40	2621,40
269,85	2617,89
270,31	2624,13
270,77	2618,28
271,23	2682,25
271,69	2637,78
272,14	2716,58
272,60	2691,23
273,06	2615,55
273,52	2684,59
273,98	2629,59
274,43	2612,04
274,89	2626,08
275,35	2616,33
275,81	2770,41
276,26	2699,42
276,72	2612,04
277,18	2611,65
277,63	2780,17
278,09	2777,05
278,55	2635,44
279,01	2708,39
279,46	2628,81
279,92	2589,80
280,38	2617,89
280,83	2599,56
281,29	2648,32
281,75	2629,59
282,20	2696,30
282,66	2709,17
283,12	2638,17
283,57	2711,90
284,03	2648,71
284,49	2652,22
284,94	2711,12
285,40	2658,07
285,86	2725,94
286,31	2677,57
286,77	2643,64
287,23	2675,62
287,68	2645,98
288,14	2687,33
288,59	2640,51
289,05	2677,57
289,51	2760,27
289,96	2679,52
290,42	2700,98
290,87	2623,35
291,33	2647,93
291,78	2640,12
292,24	2624,52
292,70	2637,00
293,15	2707,22
293,61	2737,65
294,06	2784,07
294,52	2623,74
294,97	2643,25
295,43	2748,57
295,88	2635,05
296,34	2715,02
296,79	2666,26
297,25	2653,78
297,70	2656,12
298,16	2656,51
298,61	2687,72
299,07	2702,15
299,52	2679,52
299,98	2697,86
300,43	2877,30
300,89	2682,64
301,34	2628,03
301,80	2691,62
302,25	2723,99
302,71	2742,33
303,16	2652,61
303,61	2660,41
304,07	2757,54
304,52	2647,15
304,98	2630,76
305,43	2731,80
305,88	2653,78
306,34	2679,13
306,79	2764,56
307,25	2816,44
307,70	2653,00
308,15	2713,85
308,61	2640,51
309,06	2782,12
309,52	2740,38
309,97	2670,55
310,42	2775,49
310,88	2693,96
311,33	2747,40
311,78	2686,94
312,24	2769,63
312,69	2731,80
313,14	2680,69
313,60	2720,87
314,05	2702,15
314,50	2754,81
314,95	2682,25
315,41	2844,53
315,86	2801,23
316,31	2763,39
316,77	2743,11
317,22	2718,53
317,67	2716,19
318,12	2780,56
318,58	2782,51
319,03	2825,42
319,48	2789,14
319,93	2885,49
320,39	2748,18
320,84	2785,63
321,29	2803,57
321,74	2784,07
322,20	2835,17
322,65	2869,50
323,10	2937,37
323,55	3056,35
324,00	3224,48
324,46	3413,28
324,91	3812,34
325,36	4243,78
325,81	4857,78
326,26	5644,59
326,71	6175,11
327,17	6991,18
327,62	7522,09
328,07	8415,01
328,52	9088,30
328,97	9760,03
329,42	10353,75
329,87	10906,12
330,33	11392,95
330,78	11876,27
331,23	12149,72
331,68	12390,80
332,13	12560,48
332,58	12533,18
333,03	12352,18
333,48	11987,83
333,93	11783,04
334,38	11768,21
334,84	11922,69
335,29	12225,01
335,74	12398,21
336,19	12735,24
336,64	13111,29
337,09	13319,60
337,54	13704,23
337,99	14022,93
338,44	14340,46
338,89	14521,85
339,34	14724,31
339,79	14763,32
340,24	14752,40
340,69	15014,93
341,14	14919,35
341,59	15099,58
342,04	15230,65
342,49	15465,09
342,94	15734,25
343,39	16006,14
343,84	16183,63
344,29	16391,94
344,74	16413,79
345,19	16473,86
345,64	16420,81
346,09	16695,43
346,54	16876,82
346,99	17055,48
347,43	17547,78
347,88	17842,29
348,33	18396,22
348,78	18644,71
349,23	18946,64
349,68	19170,55
350,13	19209,17
350,58	19182,64
351,03	19170,55
351,48	19048,06
351,92	18997,74
352,37	19106,18
352,82	19085,12
353,27	19381,20
353,72	19617,59
354,17	19928,10
354,62	20448,87
355,06	20785,52
355,51	21255,18
355,96	21536,83
356,41	21653,47
356,86	21915,61
357,30	21945,25
357,75	21901,56
358,20	22058,38
358,65	21969,83
359,10	22217,54
359,54	22056,82
359,99	22356,41
360,44	22451,59
360,89	22470,70
361,34	22373,57
361,78	22401,27
362,23	22251,08
362,68	22541,31
363,13	22651,31
363,57	22799,55
364,02	22947,78
364,47	22976,65
364,91	23136,20
365,36	23121,37
365,81	23224,75
366,26	23365,18
366,70	23433,83
367,15	23214,60
367,60	22931,79
368,04	22746,89
368,49	22680,18
368,94	22431,69
369,38	22420,77
369,83	22367,33
370,28	22302,96
370,72	22413,36
371,17	22723,48
371,62	22645,07
372,06	22712,17
372,51	23016,05
372,96	22826,85
373,40	22497,23
373,85	22469,92
374,29	22174,24
374,74	21927,31
375,19	21352,32
375,63	21051,56
376,08	20791,37
376,52	20416,10
376,97	20336,91
377,42	19757,63
377,86	19582,87
378,31	19168,21
378,75	18863,16
379,20	18624,42
379,64	18092,34
380,09	17599,27
380,53	17370,29
380,98	16824,94
381,43	16287,40
381,87	15825,92
382,32	15176,81
382,76	14742,25
383,21	14266,74
383,65	13815,40
384,10	13258,74
384,54	12843,69
384,99	12261,68
385,43	11694,10
385,88	11209,61
386,32	10817,96
386,76	10117,36
387,21	9738,19
387,65	9104,68
388,10	8618,63
388,54	8163,40
388,99	7659,40
389,43	7415,60
389,88	6846,07
390,32	6423,60
390,76	6074,08
391,21	5714,42
391,65	5387,52
392,10	5333,69
392,54	4832,04
392,98	4665,08
393,43	4429,07
393,87	4150,94
394,32	3932,88
394,76	3818,58
395,20	3610,28
395,65	3578,29
396,09	3447,22
396,53	3315,76
396,98	3221,36
397,42	3139,44
397,86	3062,98
398,31	2939,32
398,75	2929,96
399,19	2896,02
399,64	2823,86
400,08	2842,97
400,52	2816,05
400,97	2777,05
401,41	2727,50
401,85	2793,04
402,30	2686,94
402,74	2757,15
403,18	2744,28
403,62	2731,41
404,07	2699,81
404,51	2701,37
404,95	2771,97
405,39	2697,47
405,84	2700,98
406,28	2753,64
406,72	2680,30
407,16	2794,99
407,61	2672,89
408,05	2678,74
408,49	2685,76
408,93	2701,76
409,37	2732,19
409,82	2699,03
410,26	2652,22
410,70	2727,50
411,14	2638,56
411,58	2728,67
412,02	2682,64
412,47	2686,15
412,91	2667,04
413,35	2703,32
413,79	2794,99
414,23	2716,58
414,67	2690,06
415,12	2778,22
415,56	2648,32
416,00	2684,20
416,44	2668,21
416,88	2721,65
417,32	2704,49
417,76	2669,77
418,20	2760,27
418,64	2668,99
419,08	2708,39
419,53	2651,83
419,97	2631,93
420,41	2658,07
420,85	2621,01
421,29	2802,40
421,73	2642,85
422,17	2657,29
422,61	2710,34
423,05	2639,73
423,49	2665,48
423,93	2672,50
424,37	2692,40
424,81	2812,93
425,25	2701,37
425,69	2688,11
426,13	2639,34
426,57	2714,24
427,01	2659,63
427,45	2611,26
427,89	2697,47
428,33	2652,22
428,77	2660,02
429,21	2674,45
429,65	2653,00
430,09	2660,80
430,53	2647,54
430,97	2702,15
431,41	2720,87
431,85	2709,95
432,29	2644,81
432,73	2683,81
433,16	2642,07
433,60	2649,10
434,04	2722,43
434,48	2730,62
434,92	2666,65
435,36	2674,06
435,80	2783,29
436,24	2669,38
436,68	2675,62
437,12	2704,88
437,55	2754,42
437,99	2707,61
438,43	2665,48
438,87	2718,53
439,31	2675,23
439,75	2651,05
440,18	2674,06
440,62	2661,19
441,06	2673,67
441,50	2705,66
441,94	2724,77
442,38	2680,30
442,81	2665,09
443,25	2658,46
443,69	2663,14
444,13	2624,91
444,57	2620,23
445,00	2717,36
445,44	2693,57
445,88	2729,45
446,32	2674,45
446,75	2691,23
447,19	2626,08
447,63	2767,29
448,07	2665,48
448,50	2685,37
448,94	2651,44
449,38	2640,51
449,82	2700,98
450,25	2654,17
450,69	2665,09
451,13	2833,22
451,56	2674,06
452,00	2723,99
452,44	2654,17
452,87	2641,68
453,31	2644,81
453,75	2626,47
454,18	2668,21
454,62	2661,58
455,06	2688,50
455,49	2729,84
455,93	2640,90
456,37	2670,55
456,80	2687,33
457,24	2647,93
457,68	2722,82
458,11	2704,88
458,55	2716,19
458,98	2713,46
459,42	2731,41
459,86	2685,76
460,29	2690,45
460,73	2758,32
461,16	2647,54
461,60	2721,65
462,04	2751,30
462,47	2709,95
462,91	2677,18
463,34	2647,54
463,78	2739,99
464,21	2689,67
464,65	2755,98
465,08	2672,11
465,52	2682,64
465,96	2752,47
466,39	2688,89
466,83	2743,89
467,26	2718,92
467,70	2670,94
468,13	2676,40
468,57	2649,49
469,00	2751,69
469,44	2662,75
469,87	2692,01
470,31	2684,98
470,74	2713,46
471,17	2740,77
471,61	2649,49
472,04	2744,67
472,48	2780,56
472,91	2715,80
473,35	2687,33
473,78	2752,47
474,22	2704,10
474,65	2794,60
475,08	2723,60
475,52	2719,31
475,95	2737,26
476,39	2705,27
476,82	2699,42
477,25	2675,23
477,69	2707,61
478,12	2755,59
478,56	2890,17
478,99	2745,06
479,42	2733,36
479,86	2716,97
480,29	2694,74
480,72	2688,89
481,16	2665,48
481,59	2720,48
482,02	2696,30
482,46	2775,88
482,89	2735,70
483,32	2716,58
483,76	2660,41
484,19	2687,33
484,62	2642,46
485,06	2805,13
485,49	2684,20
485,92	2718,53
486,35	2780,17
486,79	2677,96
487,22	2863,26
487,65	2928,79
488,09	2716,97
488,52	2717,36
488,95	2720,09
489,38	2800,84
489,82	2805,91
490,25	2745,45
490,68	2677,57
491,11	2686,15
491,54	2682,64
491,98	2666,26
492,41	2688,11
492,84	2725,16
493,27	2708,00
493,70	2764,17
494,14	2746,23
494,57	2742,72
495,00	2697,86
495,43	2752,86
495,86	2733,75
496,30	2788,36
496,73	2738,04
497,16	2718,53
497,59	2684,59
498,02	2693,18
498,45	2664,70
498,88	2713,07
499,32	2691,23
499,75	2660,80
500,18	2723,60
500,61	2699,03
501,04	2791,87
501,47	2684,20
501,90	2699,81
502,33	2729,45
502,76	2699,03
503,19	2789,53
503,62	2693,96
504,06	2726,33
504,49	2694,74
504,92	2729,45
505,35	2695,91
505,78	2704,88
506,21	2697,86
506,64	2731,80
507,07	2741,55
507,50	2770,80
507,93	2702,54
508,36	2716,97
508,79	2714,63
509,22	2699,42
509,65	2745,06
510,08	2766,51
510,51	2751,69
510,94	2744,28
511,37	2812,54
511,80	2734,53
512,23	2715,80
512,66	2714,24
513,09	2738,82
513,52	2767,29
513,95	2788,75
514,38	2819,96
514,81	2786,02
515,23	2718,92
515,66	2833,22
516,09	2831,27
516,52	2744,67
516,95	2754,42
517,38	2767,68
517,81	2695,13
518,24	2785,24
518,67	2806,30
519,10	2741,55
519,53	2716,97
519,95	2808,64
520,38	2761,83
520,81	2758,71
521,24	2685,37
521,67	2746,62
522,10	2657,29
522,53	2698,25
522,95	2716,58
523,38	2833,22
523,81	2697,08
524,24	2735,31
524,67	2805,13
525,09	2756,37
525,52	2757,15
525,95	2698,64
526,38	2705,66
526,81	2747,40
527,23	2764,56
527,66	2784,07
528,09	2763,00
528,52	2759,10
528,95	2716,97
529,37	2775,88
529,80	2711,12
530,23	2708,39
530,66	2721,26
531,08	2725,55
531,51	2725,94
531,94	2802,79
532,37	2665,48
532,79	2703,71
533,22	2725,55
533,65	2713,46
534,07	2718,14
534,50	2706,44
534,93	2816,44
535,35	2691,23
535,78	2687,72
536,21	2727,89
536,63	2775,49
537,06	2733,36
537,49	2757,15
537,91	2709,56
538,34	2693,96
538,77	2753,64
539,19	2706,83
539,62	2700,98
540,05	2734,53
540,47	2720,87
540,90	2729,45
541,33	2755,20
541,75	2700,98
542,18	2724,77
542,60	2776,66
543,03	2748,18
543,45	2680,30
543,88	2766,12
544,31	2760,27
544,73	2713,07
545,16	2767,29
545,58	2655,34
546,01	2723,60
546,43	2713,07
546,86	2713,07
547,29	2669,38
547,71	2758,32
548,14	2693,57
548,56	2773,92
548,99	2714,24
549,41	2767,68
549,84	2704,88
550,26	2819,96
550,69	2762,22
551,11	2735,70
551,54	2804,74
551,96	2693,57
552,39	2722,43
552,81	2781,34
553,24	2778,61
553,66	2722,43
554,08	2718,14
554,51	2766,12
554,93	2770,02
555,36	2718,53
555,78	2709,17
556,21	2719,70
556,63	2692,01
557,06	2737,65
557,48	2690,84
557,90	2681,47
558,33	2813,71
558,75	2711,12
559,18	2851,16
559,60	2869,11
560,02	2741,55
560,45	2709,95
560,87	2754,42
561,29	2711,12
561,72	2646,37
562,14	2668,99
562,57	2730,62
562,99	2713,46
563,41	2710,34
563,84	2751,69
564,26	2712,68
564,68	2693,57
565,11	2774,32
565,53	2699,03
565,95	2708,00
566,37	2700,59
566,80	2717,36
567,22	2691,23
567,64	2677,96
568,07	2732,19
568,49	2951,81
568,91	2715,80
569,33	2842,19
569,76	2707,22
570,18	2752,47
570,60	2739,99
571,03	2791,09
571,45	2766,12
571,87	2764,95
572,29	2742,33
572,71	2779,78
573,14	2729,84
573,56	2739,21
573,98	2718,53
574,40	2810,20
574,83	2720,87
575,25	2682,64
575,67	2711,51
576,09	2689,67
576,51	2717,75
576,93	2719,70
577,36	2775,10
577,78	2743,11
578,20	2723,21
578,62	2741,55
579,04	2713,07
579,46	2681,47
579,89	2752,47
580,31	2704,49
580,73	2731,80
581,15	2727,50
581,57	2684,20
581,99	2725,55
582,41	2716,58
582,83	2845,31
583,25	2703,71
583,68	2739,99
584,10	2713,07
584,52	2699,42
584,94	2691,23
585,36	2714,24
585,78	2704,10
586,20	2701,37
586,62	2694,35
587,04	2656,90
587,46	2693,57
587,88	2705,66
588,30	2678,74
588,72	2726,33
589,14	2676,79
589,56	2670,55
589,98	2728,67
590,40	2729,06
590,82	2678,35
591,24	2698,64
591,66	2702,54
592,08	2689,67
592,50	2793,04
592,92	2693,18
593,34	2732,58
593,76	2736,48
594,18	2767,68
594,60	2754,42
595,02	2755,59
595,44	2783,68
595,86	2798,11
596,28	2757,54
596,70	2706,44
597,12	2705,27
597,54	2738,43
597,96	2697,08
598,37	2713,46
598,79	2738,82
599,21	2770,41
599,63	2775,10
600,05	2698,64
600,47	2784,85
600,89	2741,55
601,31	2705,27
601,73	2662,75
602,14	2829,71
602,56	2814,88
602,98	2873,01
603,40	2809,81
603,82	2730,63
604,24	2708,39
604,65	2759,10
605,07	2791,48
605,49	2678,74
605,91	2752,47
606,33	2781,34
606,75	2730,23
607,16	2708,00
607,58	2748,18
608,00	2701,37
608,42	2708,00
608,83	2694,74
609,25	2785,63
609,67	2790,31
610,09	2686,94
610,51	2677,18
610,92	2688,89
611,34	2711,90
611,76	2685,76
612,17	2665,48
612,59	2731,80
613,01	2679,13
613,43	2684,59
613,84	2690,84
614,26	2672,89
614,68	2731,41
615,10	2726,33
615,51	2704,88
615,93	2748,57
616,35	2757,15
616,76	2738,04
617,18	2669,77
617,60	2705,66
618,01	2657,68
618,43	2717,36
618,85	2678,74
619,26	2684,59
619,68	2740,77
620,09	2704,88
620,51	2708,00
620,93	2695,52
621,34	2686,15
621,76	2681,08
622,18	2706,83
622,59	2703,71
623,01	2779,39
623,42	2793,04
623,84	2738,43
624,26	2677,18
624,67	2719,70
625,09	2810,20
625,50	2681,08
625,92	2646,76
626,33	2739,21
626,75	2747,79
627,17	2787,58
627,58	2803,18
628,00	2689,67
628,41	2716,97
628,83	2676,01
629,24	2709,95
629,66	2768,85
630,07	2739,99
630,49	2719,70
630,90	2766,12
631,32	2770,80
631,73	2671,72
632,15	2736,09
632,56	2684,20
632,98	2697,47
633,39	2732,19
633,81	2642,46
634,22	2669,77
634,63	2683,81
635,05	2633,49
635,46	2651,83
635,88	2720,09
636,29	2674,06
636,71	2719,70
637,12	2770,80
637,54	2729,45
637,95	2691,62
638,36	2754,81
638,78	2683,42
639,19	2651,05
639,61	2669,38
640,02	2635,05
640,43	2649,88
640,85	2695,13
641,26	2682,64
641,67	2670,55
642,09	2832,05
642,50	2651,05
642,91	2683,42
643,33	2663,14
643,74	2705,66
644,15	2675,62
644,57	2728,28
644,98	2687,33
645,39	2677,57
645,81	2683,03
646,22	2671,33
646,63	2729,06
647,05	2686,15
647,46	2670,94
647,87	2706,44
648,29	2747,79
648,70	2705,27
649,11	2685,37
649,52	2663,14
649,94	2723,60
650,35	2688,50
650,76	2649,10
651,17	2720,09
651,59	2713,85
652,00	2673,28
652,41	2719,31
652,82	2721,26
653,24	2661,19
653,65	2693,57
654,06	2705,27
654,47	2701,37
654,88	2754,81
655,30	2716,97
655,71	2663,53
656,12	2656,51
656,53	2661,58
656,94	2641,68
657,35	2743,11
657,77	2705,66
658,18	2633,10
658,59	2794,21
659,00	2650,66
659,41	2729,06
659,82	2695,52
660,23	2647,54
660,65	2724,77
661,06	2760,27
661,47	2712,68
661,88	2686,54
662,29	2690,45
662,70	2722,82
663,11	2651,44
663,52	2644,42
663,93	2671,72
664,34	2751,69
664,76	2684,98
665,17	2693,96
665,58	2665,87
665,99	2684,59
666,40	2643,24
666,81	2729,45
667,22	2716,58
667,63	2743,50
668,04	2696,69
668,45	2704,88
668,86	2667,04
669,27	2678,35
669,68	2784,85
670,09	2637,78
670,50	2697,47
670,91	2654,17
671,32	2745,06
671,73	2689,28
672,14	2746,23
672,55	2722,04
672,96	2681,86
673,37	2671,72
673,78	2705,66
674,19	2720,87
674,60	2721,26
675,01	2702,93
675,42	2729,06
675,82	2733,36
676,23	2691,62
676,64	2823,86
677,05	2746,23
677,46	2810,98
677,87	2744,67
678,28	2758,32
678,69	2649,88
679,10	2731,02
679,51	2774,71
679,91	2765,34
680,32	2688,89
680,73	2728,67
681,14	2657,29
681,55	2661,58
681,96	2739,60
682,37	2689,67
682,78	2679,13
683,18	2641,68
683,59	2674,84
684,00	2792,65
684,41	2692,01
684,82	2656,90
685,22	2770,02
685,63	2708,39
686,04	2679,52
686,45	2680,69
686,86	2724,77
687,26	2655,34
687,67	2709,17
688,08	2669,38
688,49	2671,33
688,90	2745,45
689,30	2767,29
689,71	2676,79
690,12	2723,21
690,53	2736,87
690,93	2681,47
691,34	2641,29
691,75	2685,76
692,15	2676,40
692,56	2768,07
692,97	2679,52
693,38	2668,60
693,78	2653,39
694,19	2702,54
694,60	2657,29
695,00	2684,59
695,41	2636,61
695,82	2621,40
696,22	2730,62
696,63	2707,61
697,04	2723,60
697,44	2702,93
697,85	2679,52
698,26	2728,67
698,66	2801,62
699,07	2706,05
699,48	2666,65
699,88	2670,55
700,29	2735,31
700,69	2677,96
701,10	2727,11
701,51	2661,58
701,91	2684,59
702,32	2708,00
702,72	2764,17
703,13	2734,14
703,54	2634,27
703,94	2758,71
704,35	2692,79
704,75	2671,33
705,16	2715,80
705,56	2680,69
705,97	2711,12
706,37	2700,59
706,78	2714,24
707,18	2675,62
707,59	2681,86
707,99	2665,09
708,40	2671,72
708,81	2700,20
709,21	2805,13
709,62	2653,00
710,02	2665,48
710,42	2704,49
710,83	2740,38
711,23	2677,96
711,64	2696,69
712,04	2708,39
712,45	2687,33
712,85	2669,77
713,26	2765,73
713,66	2666,26
714,07	2702,54
714,47	2681,08
714,87	2685,37
715,28	2698,25
715,68	2683,81
716,09	2666,26
716,49	2705,66
716,90	2688,50
717,30	2678,35
717,70	2692,79
718,11	2676,40
718,51	2754,81
718,91	2697,47
719,32	2720,48
719,72	2658,07
720,13	2708,00
720,53	2708,00
720,93	2769,63
721,34	2685,37
721,74	2731,80
722,14	2745,06
722,55	2745,45
722,95	2723,60
723,35	2695,91
723,76	2754,42
724,16	2687,33
724,56	2672,50
724,97	2724,77
725,37	2749,74
725,77	2690,06
726,17	2697,47
726,58	2674,84
726,98	2720,87
727,38	2717,36
727,78	2711,12
728,19	2707,61
728,59	2764,95
728,99	2734,14
729,39	2702,54
729,80	2697,86
730,20	2690,84
730,60	2813,71
731,00	2713,85
731,41	2738,43
731,81	2757,54
732,21	2790,70
732,61	2806,69
733,01	2729,45
733,42	2820,35
733,82	2746,23
734,22	2740,77
734,62	2780,17
735,02	2832,05
735,42	2676,79
735,83	2777,05
736,23	2775,49
736,63	2753,64
737,03	2829,71
737,43	2870,28
737,83	2747,40
738,23	2741,94
738,64	2789,92
739,04	2727,11
739,44	2713,07
739,84	2734,92
740,24	2665,09
740,64	2666,65
741,04	2730,23
741,44	2673,28
741,84	2680,69
742,24	2667,43
742,64	2737,26
743,05	2687,33
743,45	2706,83
743,85	2703,32
744,25	2732,19
744,65	2691,62
745,05	2766,12
745,45	2776,27
745,85	2815,27
746,25	2835,56
746,65	2701,76
747,05	2672,50
747,45	2751,69
747,85	2743,11
748,25	2688,50
748,65	2713,85
749,05	2677,18
749,45	2709,17
749,85	2681,47
750,25	2683,42
750,65	2708,78
751,05	2704,49
751,45	2692,40
751,85	2727,11
752,25	2694,35
752,64	2741,94
753,04	2741,94
753,44	2723,99
753,84	2736,48
754,24	2681,08
754,64	2679,52
755,04	2796,16
755,44	2703,71
755,84	2728,28
756,24	2700,59
756,64	2690,84
757,03	2828,54
757,43	2738,82
757,83	2663,92
758,23	2686,54
758,63	2717,75
759,03	2803,96
759,43	2686,54
759,82	2690,45
760,22	2750,52
760,62	2745,06
761,02	2736,87
761,42	2752,08
761,82	2741,55
762,21	2747,01
762,61	2713,46
763,01	2803,18
763,41	2779,00
763,81	2745,06
764,20	2674,45
764,60	2816,05
765,00	2704,49
765,40	2807,47
765,79	2732,58
766,19	2729,84
766,59	2710,73
766,99	2713,46
767,38	2739,21
767,78	2680,30
768,18	2663,53
768,58	2741,55
768,97	2738,82
769,37	2764,95
769,77	2699,81
770,16	2668,21
770,56	2711,51
770,96	2662,75
771,36	2712,29
771,75	2698,64
772,15	2780,56
772,55	2803,57
772,94	2672,11
773,34	2684,20
773,74	2709,56
774,13	2733,36
774,53	2697,86
774,93	2769,24
775,32	2734,53
775,72	2738,04
776,11	2699,42
776,51	2693,18
776,91	2697,86
777,30	2743,89
777,70	2697,86
778,10	2750,91
778,49	2710,73
778,89	2738,82
779,28	2749,74
779,68	2655,34
780,07	2698,25
780,47	2740,38
780,87	2728,28
781,26	2721,26
781,66	2734,53
782,05	2684,98
782,45	2725,55
782,84	2739,60
783,24	2708,39
783,63	2781,73
784,03	2693,57
784,42	2725,55
784,82	2784,07
785,21	2776,66
785,61	2791,87
786,00	2711,90
786,40	2653,39
786,79	2673,67
787,19	2737,26
787,58	2766,90
787,98	2744,28
788,37	2734,53
788,77	2725,94
789,16	2777,44
789,56	2706,05
789,95	2718,53
790,35	2898,75
790,74	2858,18
791,13	2897,19
791,53	2712,29
791,92	2745,45
792,32	2730,62
792,71	2675,23
793,10	2702,54
793,50	2740,77
793,89	2706,05
794,29	2734,53
794,68	2769,24
795,07	2734,53
795,47	2753,64
795,86	2702,15
796,26	2688,11
796,65	2702,15
797,04	2670,94
797,44	2714,63
797,83	2706,05
798,22	2709,95
798,62	2830,10
799,01	2724,77
799,40	2734,53
799,80	2814,88
800,19	2662,75
800,58	2715,41
800,97	2773,92
801,37	2768,46
801,76	2790,70
802,15	2745,45
802,55	2735,70
802,94	2697,86
803,33	4551,95
803,72	2925,28
804,12	2699,03
804,51	2761,05
804,90	2785,63
805,29	2712,68
805,69	2700,20
806,08	2710,34
806,47	2701,76
806,86	2786,02
807,26	2723,60
807,65	2692,40
808,04	2678,74
808,43	2763,00
808,82	2748,96
809,22	2773,14
809,61	2724,77
810,00	2787,19
810,39	2760,66
810,78	2752,08
811,17	2786,02
811,57	2764,17
811,96	2702,15
812,35	2683,03
812,74	2797,33
813,13	2713,85
813,52	2680,69
813,91	2680,30
814,30	2697,86
814,70	2825,42
815,09	2759,49
815,48	2701,76
815,87	2777,44
816,26	2720,48
816,65	2834,78
817,04	2738,82
817,43	2738,82
817,82	2685,37
818,21	2765,73
818,60	2704,10
819,00	2769,63
819,39	2724,38
819,78	2695,13
820,17	2724,77
820,56	2652,61
820,95	2697,86
821,34	2731,80
821,73	2671,33
822,12	2718,14
822,51	2765,73
822,90	2782,51
823,29	2680,30
823,68	2775,49
824,07	2706,44
824,46	2737,26
824,85	2672,89
825,24	2754,42
825,63	2760,66
826,02	2793,43
826,41	2745,06
826,80	2715,41
827,18	2689,67
827,57	2702,54
827,96	2762,61
828,35	2747,40
828,74	2673,28
829,13	2752,47
829,52	2826,98
829,91	2819,57
830,30	2708,78
830,69	2655,73
831,08	2710,73
831,47	2747,40
831,85	2803,57
832,24	2690,45
832,63	2738,82
833,02	2684,59
833,41	2761,44
833,80	2806,69
834,19	2805,52
834,57	2661,58
834,96	2686,15
835,35	2736,09
835,74	2738,43
836,13	2769,24
836,52	2815,27
836,90	2698,64
837,29	2812,93
837,68	2718,92
838,07	2698,64
838,46	2714,63
838,84	2751,69
839,23	2777,83
839,62	2865,21
840,01	2751,30
840,40	2707,61
840,78	2727,50
841,17	2755,59
841,56	2738,04
841,95	2778,22
842,33	2715,02
842,72	2734,53
843,11	2711,90
843,50	2688,11
843,88	2727,50
844,27	2725,55
844,66	2709,17
845,04	2780,95
845,43	2734,53
845,82	2741,55
846,20	2709,17
846,59	2711,90
846,98	2711,90
847,37	2806,30
847,75	2755,98
848,14	2837,51
848,53	2801,23
848,91	2788,36
849,30	2787,19
849,68	2695,13
850,07	2777,44
850,46	2726,72
850,84	2796,94
851,23	2734,92
851,62	2723,60
852,00	2708,39
852,39	2688,50
852,77	2689,67
853,16	2741,55
853,55	2744,28
853,93	2706,05
854,32	2715,41
854,70	2720,48
855,09	2678,35
855,47	2704,10
855,86	2697,47
856,25	2729,45
856,63	2756,37
857,02	2704,49
857,40	2802,01
857,79	2713,07
858,17	2692,40
858,56	2720,48
858,94	2684,20
859,33	2761,44
859,71	2702,93
860,10	2764,95
860,48	2673,28
860,87	2728,67
861,25	2709,17
861,64	2786,41
862,02	2706,83
862,41	2851,55
862,79	2720,87
863,18	2768,46
863,56	2736,48
863,95	2890,17
864,33	2702,15
864,71	2731,80
865,10	2689,28
865,48	2690,06
865,87	2715,80
866,25	2720,09
866,64	2702,93
867,02	2777,83
867,40	2679,13
867,79	2677,96
868,17	2719,31
868,56	2716,97
868,94	2665,09
869,32	2678,35
869,71	2735,70
870,09	2809,42
870,47	2704,88
870,86	2727,11
871,24	2749,35
871,62	2700,20
872,01	2657,68
872,39	2682,25
872,77	2720,48
873,16	2761,83
873,54	2795,77
873,92	2716,97
874,31	2671,72
874,69	2680,30
875,07	2723,99
875,46	2692,01
875,84	2861,30
876,22	2705,66
876,60	2675,23
876,99	2726,33
877,37	2716,19
877,75	2728,67
878,14	2681,47
878,52	2668,21
878,90	2720,48
879,28	2672,11
879,66	2673,67
880,05	2665,09
880,43	2676,79
880,81	2676,01
881,19	2654,17
881,58	2644,42
881,96	2708,39
882,34	2785,63
882,72	2711,51
883,10	2713,46
883,49	2673,67
883,87	2683,81
884,25	2768,85
884,63	2748,96
885,01	2660,80
885,39	2706,44
885,78	2690,45
886,16	2673,28
886,54	2782,51
886,92	2738,04
887,30	2771,58
887,68	2665,87
888,06	2726,72
888,44	2762,61
888,83	2715,02
889,21	2759,49
889,59	2697,86
889,97	2706,05
890,35	2807,47
890,73	2699,81
891,11	2817,22
891,49	2639,73
891,87	2701,37
892,25	2677,96
892,63	2812,54
893,01	2679,52
893,39	2699,03
893,77	2723,60
894,16	2748,57
894,54	2654,95
894,92	2670,16
895,30	2732,19
895,68	2698,64
896,06	2818,40
896,44	2705,27
896,82	2649,88
897,20	2699,42
897,58	2683,81
897,96	2667,43
898,34	2704,49
898,72	2682,64
899,10	2769,24
899,47	2685,76
899,85	2754,81
900,23	2703,32
900,61	2740,38
900,99	2777,83
901,37	2664,31
901,75	2686,15
902,13	2791,48
902,51	2706,05
902,89	2703,71
903,27	2696,69
903,65	2728,28
904,03	2668,21
904,40	2764,17
904,78	2777,05
905,16	2699,03
905,54	2657,68
905,92	2700,59
906,30	2667,04
906,68	2725,55
907,06	2665,48
907,43	2725,55
907,81	2666,65
908,19	2677,18
908,57	2650,66
908,95	2660,41
909,33	2678,74
909,70	2689,28
910,08	2725,55
910,46	2716,19
910,84	2769,24
911,22	2672,50
911,59	2728,67
911,97	2674,06
912,35	2695,13
912,73	2703,71
913,11	2663,14
913,48	2655,34
913,86	2660,80
914,24	2695,52
914,62	2683,03
914,99	2691,62
915,37	2633,10
915,75	2754,03
916,13	2667,82
916,50	2819,57
916,88	2679,13
917,26	2715,02
917,63	2662,75
918,01	2707,61
918,39	2670,94
918,77	2694,74
919,14	2755,20
919,52	2704,88
919,90	2644,81
920,27	2661,97
920,65	2806,30
921,03	2672,11
921,40	2676,01
921,78	2662,75
922,16	2715,80
922,53	2624,13
922,91	2643,64
923,28	2629,59
923,66	2740,77
924,04	2708,00
924,41	2644,42
924,79	2677,57
925,17	2658,07
925,54	2653,00
925,92	2652,61
926,29	2643,64
926,67	2647,54
927,05	2696,30
927,42	2690,06
927,80	2748,18
928,17	2681,47
928,55	2746,62
928,92	2655,73
929,30	2658,85
929,67	2732,19
930,05	2695,52
930,43	2676,01
930,80	2743,50
931,18	2631,15
931,55	2711,51
931,93	2690,45
932,30	2872,23
932,68	2641,68
933,05	2664,31
933,43	2654,95
933,80	2663,53
934,18	2686,94
934,55	2674,84
934,92	2813,32
935,30	2665,09
935,67	2631,15
936,05	2759,49
936,42	2652,61
936,80	2663,14
937,17	2657,68
937,55	2651,83
937,92	2745,84
938,29	2647,15
938,67	2708,78
939,04	2723,21
939,42	2713,07
939,79	2720,09
940,16	2600,34
940,54	2740,77
940,91	2658,46
941,29	2621,79
941,66	2654,56
942,03	2658,85
942,41	2679,91
942,78	2622,57
943,15	2675,23
943,53	2645,59
943,90	2629,98
944,27	2626,86
944,65	2643,25
945,02	2633,88
945,39	2634,27
945,77	2709,56
946,14	2701,76
946,51	2670,16
946,89	2642,46
947,26	2669,77
947,63	2663,14
948,01	2650,66
948,38	2680,30
948,75	2700,59
949,12	2730,62
949,50	2731,02
949,87	2667,04
950,24	2660,02
950,61	2681,08
950,99	2692,40
951,36	2639,34
951,73	2628,42
952,10	2596,04
952,48	2642,46
952,85	2654,95
953,22	2652,61
953,59	2642,85
953,96	2771,19
954,34	2670,55
954,71	2626,08
955,08	2726,72
955,45	2684,59
955,82	2736,09
956,20	2686,54
956,57	2603,07
956,94	2645,59
957,31	2681,86
957,68	2672,11
958,05	2671,33
958,42	2665,48
958,80	2669,77
959,17	2680,30
959,54	2706,83
959,91	2632,71
960,28	2697,47
960,65	2684,59
961,02	2611,26
961,39	2727,89
961,76	2656,12
962,14	2726,72
962,51	2683,03
962,88	2660,02
963,25	2650,27
963,62	2655,73
963,99	2650,27
964,36	2654,56
964,73	2608,53
965,10	2691,62
965,47	2627,64
965,84	2692,01
966,21	2666,65
966,58	2742,33
966,95	2606,58
967,32	2647,54
967,69	2696,30
968,06	2732,58
968,43	2623,74
968,80	2734,14
969,17	2649,88
969,54	2684,59
969,91	2738,04
970,28	2680,69
970,65	2661,58
971,02	2605,80
971,39	2624,52
971,76	2668,99
972,13	2656,12
972,50	2714,63
972,87	2739,60
973,24	2639,34
973,61	2631,93
973,98	2658,85
974,34	2683,81
974,71	2732,97
975,08	2635,83
975,45	2641,29
975,82	2665,09
976,19	2698,25
976,56	2709,95
976,93	2652,22
977,30	2664,31
977,66	2630,76
978,03	2703,32
978,40	2628,81
978,77	2713,07
979,14	2650,66
979,51	2631,54
979,88	2649,10
980,24	2656,90
980,61	2708,39
980,98	2630,37
981,35	2696,69
981,72	2661,19
982,08	2670,16
982,45	2611,26
982,82	2712,29
983,19	2619,45
983,56	2727,89
983,92	2689,28
984,29	2630,76
984,66	2635,44
985,03	2713,07
985,39	2713,07
985,76	2695,91
986,13	2630,37
986,50	2667,82
986,86	2639,73
987,23	2635,83
987,60	2647,54
987,97	2715,02
988,33	2639,34
988,70	2627,25
989,07	2664,31
989,43	2643,24
989,80	2613,99
990,17	2630,76
990,53	2635,83
990,90	2715,41
991,27	2620,62
991,63	2638,17
992,00	2641,29
992,37	2694,35
992,73	2695,91
993,10	2613,99
993,47	2593,70
993,83	2656,90
994,20	2635,44
994,57	2684,59
994,93	2645,59
995,30	2745,45
995,66	2651,83
996,03	2654,56
996,40	2665,48
996,76	2640,12
997,13	2659,63
997,49	2621,40
997,86	2635,44
998,23	2694,74
998,59	2630,37
998,96	2623,74
999,32	2634,66
999,69	2647,15
1000,05	2668,21
1000,42	2684,20
1000,78	2624,52
1001,15	2620,62
1001,51	2628,42
1001,88	2641,68
1002,24	2636,61
1002,61	2629,59
1002,97	2745,84
1003,34	2654,95
1003,70	2630,76
1004,07	2734,14
1004,43	2666,26
1004,80	2654,95
1005,16	2704,49
1005,53	2754,42
1005,89	2637,78
1006,26	2595,65
1006,62	2610,09
1006,99	2731,41
1007,35	2689,28
1007,72	2667,82
1008,08	2615,94
1008,44	2667,82
1008,81	2634,66
1009,17	2645,59
1009,54	2628,81
1009,90	2605,80
1010,26	2630,37
1010,63	2681,86
1010,99	2655,34
1011,36	2656,12
1011,72	2626,47
1012,08	2686,94
1012,45	2646,76
1012,81	2674,45
1013,17	2729,06
1013,54	2634,66
1013,90	2657,29
1014,26	2624,13
1014,63	2576,15
1014,99	2635,44
1015,35	2622,96
1015,72	2681,47
1016,08	2603,46
1016,44	2643,64
1016,81	2646,76
1017,17	2664,31
1017,53	2624,52
1017,90	2761,05
1018,26	2666,26
1018,62	2621,40
1018,98	2667,82
1019,35	2666,65
1019,71	2599,56
1020,07	2681,86
1020,43	2658,85
1020,80	2621,79
1021,16	2629,20
1021,52	2692,79
1021,88	2646,37
1022,25	2670,94
1022,61	2675,23
1022,97	2640,90
1023,33	2621,79
1023,70	2634,66
1024,06	2605,02
1024,42	2684,98
1024,78	2626,47
1025,14	2628,42
1025,50	2616,33
1025,87	2712,29
1026,23	2631,15
1026,59	2601,90
1026,95	2654,56
1027,31	2604,63
1027,67	2669,77
1028,04	2631,54
1028,40	2677,57
1028,76	2658,46
1029,12	2594,48
1029,48	2647,54
1029,84	2644,42
1030,20	2642,07
1030,56	2610,09
1030,92	2708,00
1031,29	2629,20
1031,65	2611,26
1032,01	2622,96
1032,37	2606,58
1032,73	2699,03
1033,09	2681,47
1033,45	2696,30
1033,81	2622,96
1034,17	2638,95
1034,53	2572,64
1034,89	2630,76
1035,25	2630,76
1035,61	2630,76
>>>>>End Processed Spectral Data<<<<<
