SpectraSuite Data File
++++++++++++++++++++++++++++++++++++
Date: Wed Feb 24 12:45:12 EET 2016
User: OO Maya
Dark Spectrum Present: No
Reference Spectrum Present: No
Number of Sampled Component Spectra: 1
Spectrometers: FLMS00673
Integration Time (usec): 700000 (FLMS00673)
Spectra Averaged: 6 (FLMS00673)
Boxcar Smoothing: 0 (FLMS00673)
Correct for Electrical Dark: No (FLMS00673)
Strobe/Lamp Enabled: No (FLMS00673)
Correct for Detector Non-linearity: No (FLMS00673)
Correct for Stray Light: No (FLMS00673)
Number of Pixels in Processed Spectrum: 2048
>>>>>Begin Processed Spectral Data<<<<<
188,41	2315,57
188,88	2315,57
189,35	2315,57
189,82	2261,74
190,28	2336,63
190,75	2347,17
191,22	2339,37
191,68	2295,29
192,15	2368,23
192,62	2440,79
193,08	2373,30
193,55	2446,64
194,02	2365,50
194,48	2446,64
194,95	2506,32
195,42	2454,05
195,88	2531,29
196,35	2491,89
196,82	2511,00
197,28	2548,06
197,75	2578,88
198,22	2544,94
198,68	2642,46
199,15	2969,36
199,61	4067,85
200,08	4190,34
200,55	4108,81
201,01	4075,65
201,48	4105,69
201,94	4072,53
202,41	4054,59
202,88	4111,54
203,34	4077,21
203,81	4429,46
204,27	4086,19
204,74	4098,28
205,20	4047,18
205,67	4030,01
206,13	4056,54
206,60	4008,95
207,06	3966,43
207,53	4042,50
208,00	4014,41
208,46	4064,34
208,93	4055,37
209,39	3996,46
209,86	3989,83
210,32	3994,51
210,78	4070,58
211,25	3960,19
211,71	4003,49
212,18	3898,94
212,64	3913,38
213,11	4005,83
213,57	3943,02
214,04	3941,85
214,50	3930,93
214,97	4092,82
215,43	4027,28
215,89	3875,93
216,36	3874,76
216,82	3866,56
217,29	3881,00
217,75	3904,01
218,22	3876,71
218,68	3944,97
219,14	3930,93
219,61	3911,82
220,07	3921,57
220,53	3932,10
221,00	3894,65
221,46	3842,38
221,93	3891,14
222,39	3874,37
222,85	3888,41
223,32	3900,11
223,78	3859,15
224,24	4045,62
224,71	3911,04
225,17	3872,81
225,63	3866,96
226,10	3879,44
226,56	3846,67
227,02	3903,23
227,48	3895,82
227,95	3877,88
228,41	3886,85
228,87	3846,28
229,34	3943,41
229,80	3828,34
230,26	3843,94
230,72	3925,47
231,19	3942,24
231,65	3848,23
232,11	3903,62
232,57	3865,00
233,04	3898,55
233,50	3877,88
233,96	3904,40
234,42	3906,74
234,88	3893,09
235,35	3913,77
235,81	3860,32
236,27	3881,00
236,73	3875,54
237,19	3902,06
237,66	3961,75
238,12	3872,03
238,58	3907,91
239,04	3886,46
239,50	3918,84
239,96	3958,63
240,43	3915,72
240,89	3960,97
241,35	3893,09
241,81	3908,30
242,27	3878,27
242,73	3926,64
243,19	3943,41
243,66	3946,92
244,12	3961,36
244,58	3991,78
245,04	3915,33
245,50	3918,84
245,96	3947,31
246,42	3919,23
246,88	3958,63
247,34	4083,06
247,80	3941,85
248,26	4081,50
248,72	3945,75
249,18	4020,65
249,65	3973,45
250,11	3992,17
250,57	3943,41
251,03	3957,85
251,49	3982,81
251,95	4000,37
252,41	3978,91
252,87	4042,89
253,33	4014,02
253,79	4031,18
254,25	4040,93
254,71	4028,06
255,17	3997,24
255,63	4090,09
256,09	3993,73
256,55	3987,49
257,01	4098,28
257,47	4114,66
257,92	4059,27
258,38	4127,53
258,84	4154,45
259,30	4116,22
259,76	4093,21
260,22	4094,77
260,68	4109,20
261,14	4145,87
261,60	4157,57
262,06	4161,47
262,52	4227,79
262,98	4195,02
263,43	4235,98
263,89	4185,66
264,35	4196,97
264,81	4190,34
265,27	4223,50
265,73	4196,58
266,19	4233,25
266,65	4249,24
267,10	4262,51
267,56	4217,65
268,02	4229,35
268,48	4244,56
268,94	4308,93
269,40	4302,68
269,85	4278,50
270,31	4291,37
270,77	4337,79
271,23	4326,48
271,69	4399,04
272,14	4465,74
272,60	4429,85
273,06	4392,41
273,52	4509,04
273,98	4455,60
274,43	4463,01
274,89	4504,36
275,35	4522,31
275,81	4582,38
276,26	4586,67
276,72	4566,39
277,18	4597,98
277,63	4722,42
278,09	4743,10
278,55	4628,80
279,01	4688,87
279,46	4651,42
279,92	4740,76
280,38	4771,18
280,83	4771,57
281,29	4786,79
281,75	4763,77
282,20	4806,68
282,66	4851,54
283,12	4821,89
283,57	4911,61
284,03	4961,16
284,49	4938,14
284,94	5039,95
285,40	4964,67
285,86	5057,12
286,31	5121,48
286,77	5116,02
287,23	5111,73
287,68	5159,32
288,14	5191,70
288,59	5177,66
289,05	5281,03
289,51	5370,36
289,96	5277,52
290,42	5370,36
290,87	5336,42
291,33	5342,66
291,78	5410,15
292,24	5430,82
292,70	5483,10
293,15	5534,20
293,61	5499,09
294,06	5616,90
294,52	5576,72
294,97	5597,39
295,43	5693,35
295,88	5684,77
296,34	5740,16
296,79	5774,88
297,25	5819,35
297,70	5807,26
298,16	5885,67
298,61	5941,45
299,07	6016,74
299,52	6061,99
299,98	6053,41
300,43	6313,60
300,89	6214,51
301,34	6258,98
301,80	6250,79
302,25	6375,62
302,71	6405,27
303,16	6477,82
303,61	6453,25
304,07	6645,95
304,52	6671,70
304,98	6605,77
305,43	6795,36
305,88	6778,58
306,34	6843,73
306,79	6939,30
307,25	7052,42
307,70	7049,69
308,15	7094,94
308,61	7095,33
309,06	7383,22
309,52	7288,43
309,97	7320,81
310,42	7408,97
310,88	7526,77
311,33	7653,16
311,78	7625,86
312,24	7715,58
312,69	7728,06
313,14	7708,16
313,60	7892,68
314,05	7881,75
314,50	8154,04
314,95	8128,29
315,41	8349,08
315,86	8395,50
316,31	8454,02
316,77	8419,30
317,22	8567,92
317,67	8475,08
318,12	8667,39
318,58	8706,01
319,03	8617,46
319,48	8723,96
319,93	8682,61
320,39	8560,12
320,84	8514,48
321,29	8617,07
321,74	8725,52
322,20	8787,15
322,65	8917,44
323,10	9073,87
323,55	9146,03
324,00	9367,60
324,46	9501,40
324,91	9691,38
325,36	9912,17
325,81	10074,06
326,26	10248,04
326,71	9994,09
327,17	9910,61
327,62	9889,54
328,07	10210,98
328,52	10509,79
328,97	10530,46
329,42	10832,39
329,87	11069,17
330,33	11278,65
330,78	11603,21
331,23	11792,40
331,68	12070,92
332,13	12403,67
332,58	12479,74
333,03	12421,61
333,48	12196,53
333,93	11991,34
334,38	12032,69
334,84	12174,69
335,29	12261,29
335,74	12277,67
336,19	12408,35
336,64	12680,24
337,09	12697,80
337,54	12902,98
337,99	13133,53
338,44	13423,75
338,89	13729,19
339,34	13829,84
339,79	14106,41
340,24	14195,35
340,69	14434,86
341,14	14530,05
341,59	14736,40
342,04	14773,46
342,49	14914,67
342,94	15175,64
343,39	15301,25
343,84	15401,51
344,29	15471,33
344,74	15694,85
345,19	15830,60
345,64	16000,68
346,09	16100,94
346,54	16372,05
346,99	16388,04
347,43	16583,48
347,88	16772,28
348,33	16975,52
348,78	17041,44
349,23	17230,63
349,68	17372,24
350,13	17353,12
350,58	17491,99
351,03	17851,27
351,48	17917,97
351,92	17979,22
352,37	18160,22
352,82	18262,42
353,27	18558,50
353,72	18432,50
354,17	18681,38
354,62	18876,03
355,06	18988,77
355,51	19089,02
355,96	19387,05
356,41	19443,61
356,86	19445,56
357,30	19619,54
357,75	19758,80
358,20	20097,40
358,65	20058,39
359,10	20255,39
359,54	20364,61
359,99	20657,96
360,44	20839,35
360,89	20796,44
361,34	20890,06
361,78	21038,69
362,23	20933,75
362,68	21250,11
363,13	21451,40
363,57	21589,10
364,02	21746,70
364,47	21894,93
364,91	21895,71
365,36	22115,33
365,81	22302,96
366,26	22391,91
366,70	22505,03
367,15	22703,20
367,60	22711,78
368,04	22949,34
368,49	23184,18
368,94	23312,91
369,38	23300,42
369,83	23549,30
370,28	23789,60
370,72	23813,78
371,17	24267,06
371,62	24275,65
372,06	24703,57
372,51	24719,57
372,96	24759,75
373,40	24953,23
373,85	25326,55
374,29	25450,60
374,74	25879,30
375,19	25960,05
375,63	26080,59
376,08	26405,92
376,52	26442,98
376,97	26927,86
377,42	27018,36
377,86	27099,11
378,31	27295,72
378,75	27321,46
379,20	27587,11
379,64	27725,21
380,09	27846,91
380,53	28241,68
380,98	28413,32
381,43	28446,09
381,87	28867,00
382,32	28815,12
382,76	29157,22
383,21	29363,58
383,65	29471,25
384,10	29750,94
384,54	29953,40
384,99	30177,31
385,43	30398,49
385,88	30799,11
386,32	30977,77
386,76	31166,57
387,21	31591,77
387,65	31760,29
388,10	32007,22
388,54	32299,00
388,99	32599,37
389,43	32799,88
389,88	32771,79
390,32	33348,73
390,76	33553,14
391,21	33587,47
391,65	33890,57
392,10	34366,09
392,54	34320,45
392,98	34329,03
393,43	34721,85
393,87	34947,32
394,32	35285,92
394,76	35379,54
395,20	35839,84
395,65	36105,10
396,09	36363,34
396,53	36517,43
396,98	36660,59
397,42	36703,50
397,86	37182,14
398,31	37133,77
398,75	37646,35
399,19	37894,05
399,64	38172,58
400,08	38265,81
400,52	38611,43
400,97	39371,32
401,41	39527,36
401,85	39853,08
402,30	39879,22
402,74	40623,12
403,18	40836,11
403,62	41062,75
404,07	41662,71
404,51	41906,51
404,95	42504,91
405,39	42770,17
405,84	43349,06
406,28	43812,10
406,72	44180,73
407,16	44806,44
407,61	44843,10
408,05	45533,95
408,49	45849,14
408,93	46382,01
409,37	46672,23
409,82	47221,09
410,26	47952,51
410,70	48215,43
411,14	48284,47
411,58	48845,03
412,02	49402,47
412,47	49751,60
412,91	50382,37
413,35	50675,72
413,79	50748,67
414,23	51318,59
414,67	51496,86
415,12	51779,28
415,56	51869,39
416,00	52590,67
416,44	52642,55
416,88	53131,72
417,32	53129,77
417,76	53472,27
418,20	54015,27
418,64	54016,83
419,08	54217,73
419,53	54529,41
419,97	54549,31
420,41	54845,77
420,85	55471,48
421,29	55512,05
421,73	55629,46
422,17	56171,69
422,61	56237,22
423,05	56829,77
423,49	56694,80
423,93	57075,52
424,37	57394,23
424,81	57548,31
425,25	57961,81
425,69	58158,41
426,13	58340,58
426,57	58617,16
427,01	58954,19
427,45	59304,88
427,89	59581,85
428,33	59759,34
428,77	60088,18
429,21	60294,54
429,65	60609,34
430,09	60800,88
430,53	61260,79
430,97	61461,69
431,41	61657,12
431,85	61902,88
432,29	62111,97
432,73	62310,91
433,16	62581,63
433,60	62957,68
434,04	63059,88
434,48	63499,51
434,92	63610,30
435,36	63897,80
435,80	64036,67
436,24	64315,58
436,68	64570,70
437,12	64665,10
437,55	65108,63
437,99	65212,79
438,43	65319,67
438,87	65519,79
439,31	65523,30
439,75	65535,00
440,18	65535,00
440,62	65535,00
441,06	65535,00
441,50	65535,00
441,94	65535,00
442,38	65535,00
442,81	65535,00
443,25	65535,00
443,69	65535,00
444,13	65535,00
444,57	65535,00
445,00	65535,00
445,44	65535,00
445,88	65535,00
446,32	65535,00
446,75	65535,00
447,19	65535,00
447,63	65535,00
448,07	65535,00
448,50	65535,00
448,94	65535,00
449,38	65535,00
449,82	65535,00
450,25	65535,00
450,69	65535,00
451,13	65535,00
451,56	65535,00
452,00	65535,00
452,44	65535,00
452,87	65535,00
453,31	65535,00
453,75	65535,00
454,18	65535,00
454,62	65535,00
455,06	65535,00
455,49	65535,00
455,93	65535,00
456,37	65535,00
456,80	65535,00
457,24	65535,00
457,68	65535,00
458,11	65535,00
458,55	65535,00
458,98	65535,00
459,42	65535,00
459,86	65535,00
460,29	65535,00
460,73	65535,00
461,16	65535,00
461,60	65535,00
462,04	65535,00
462,47	65535,00
462,91	65535,00
463,34	65535,00
463,78	65535,00
464,21	65535,00
464,65	65535,00
465,08	65535,00
465,52	65535,00
465,96	65535,00
466,39	65535,00
466,83	65535,00
467,26	65535,00
467,70	65535,00
468,13	65535,00
468,57	65535,00
469,00	65535,00
469,44	65535,00
469,87	65535,00
470,31	65535,00
470,74	65535,00
471,17	65535,00
471,61	65535,00
472,04	65535,00
472,48	65535,00
472,91	65535,00
473,35	65535,00
473,78	65535,00
474,22	65535,00
474,65	65535,00
475,08	65535,00
475,52	65535,00
475,95	65535,00
476,39	65535,00
476,82	65535,00
477,25	65535,00
477,69	65535,00
478,12	65535,00
478,56	65535,00
478,99	65535,00
479,42	65535,00
479,86	65535,00
480,29	65535,00
480,72	65535,00
481,16	65535,00
481,59	65535,00
482,02	65535,00
482,46	65535,00
482,89	65535,00
483,32	65535,00
483,76	65535,00
484,19	65535,00
484,62	65535,00
485,06	65535,00
485,49	65535,00
485,92	65535,00
486,35	65535,00
486,79	65535,00
487,22	65535,00
487,65	65535,00
488,09	65535,00
488,52	65535,00
488,95	65535,00
489,38	65535,00
489,82	65535,00
490,25	65535,00
490,68	65535,00
491,11	65535,00
491,54	65535,00
491,98	65535,00
492,41	65535,00
492,84	65535,00
493,27	65535,00
493,70	65535,00
494,14	65535,00
494,57	65535,00
495,00	65535,00
495,43	65535,00
495,86	65535,00
496,30	65535,00
496,73	65535,00
497,16	65535,00
497,59	65535,00
498,02	65535,00
498,45	65535,00
498,88	65535,00
499,32	65535,00
499,75	65535,00
500,18	65535,00
500,61	65535,00
501,04	65535,00
501,47	65535,00
501,90	65535,00
502,33	65535,00
502,76	65535,00
503,19	65535,00
503,62	65535,00
504,06	65535,00
504,49	65535,00
504,92	65535,00
505,35	65535,00
505,78	65535,00
506,21	65535,00
506,64	65535,00
507,07	65535,00
507,50	65535,00
507,93	65535,00
508,36	65535,00
508,79	65535,00
509,22	65535,00
509,65	65535,00
510,08	65535,00
510,51	65535,00
510,94	65535,00
511,37	65535,00
511,80	65535,00
512,23	65535,00
512,66	65535,00
513,09	65535,00
513,52	65535,00
513,95	65535,00
514,38	65535,00
514,81	65535,00
515,23	65535,00
515,66	65535,00
516,09	65535,00
516,52	65535,00
516,95	65535,00
517,38	65535,00
517,81	65535,00
518,24	65535,00
518,67	65535,00
519,10	65535,00
519,53	65535,00
519,95	65535,00
520,38	65535,00
520,81	65535,00
521,24	65535,00
521,67	65535,00
522,10	65535,00
522,53	65535,00
522,95	65535,00
523,38	65535,00
523,81	65535,00
524,24	65535,00
524,67	65535,00
525,09	65535,00
525,52	65535,00
525,95	65535,00
526,38	65535,00
526,81	65535,00
527,23	65535,00
527,66	65535,00
528,09	65535,00
528,52	65535,00
528,95	65535,00
529,37	65535,00
529,80	65535,00
530,23	65535,00
530,66	65535,00
531,08	65535,00
531,51	65535,00
531,94	65535,00
532,37	65535,00
532,79	65535,00
533,22	65535,00
533,65	65535,00
534,07	65535,00
534,50	65535,00
534,93	65535,00
535,35	65535,00
535,78	65535,00
536,21	65535,00
536,63	65535,00
537,06	65535,00
537,49	65535,00
537,91	65535,00
538,34	65535,00
538,77	65535,00
539,19	65535,00
539,62	65535,00
540,05	65535,00
540,47	65535,00
540,90	65535,00
541,33	65535,00
541,75	65535,00
542,18	65535,00
542,60	65535,00
543,03	65535,00
543,45	65535,00
543,88	65535,00
544,31	65535,00
544,73	65535,00
545,16	65535,00
545,58	65535,00
546,01	65535,00
546,43	65535,00
546,86	65535,00
547,29	65535,00
547,71	65535,00
548,14	65535,00
548,56	65535,00
548,99	65535,00
549,41	65535,00
549,84	65535,00
550,26	65535,00
550,69	65535,00
551,11	65535,00
551,54	65535,00
551,96	65535,00
552,39	65535,00
552,81	65535,00
553,24	65535,00
553,66	65535,00
554,08	65535,00
554,51	65535,00
554,93	65535,00
555,36	65535,00
555,78	65535,00
556,21	65535,00
556,63	65535,00
557,06	65535,00
557,48	65535,00
557,90	65535,00
558,33	65535,00
558,75	65535,00
559,18	65535,00
559,60	65535,00
560,02	65535,00
560,45	65535,00
560,87	65535,00
561,29	65535,00
561,72	65535,00
562,14	65535,00
562,57	65535,00
562,99	65535,00
563,41	65535,00
563,84	65535,00
564,26	65535,00
564,68	65535,00
565,11	65535,00
565,53	65535,00
565,95	65535,00
566,37	65535,00
566,80	65535,00
567,22	65535,00
567,64	65535,00
568,07	65535,00
568,49	65535,00
568,91	65535,00
569,33	65535,00
569,76	65535,00
570,18	65535,00
570,60	65535,00
571,03	65535,00
571,45	65535,00
571,87	65535,00
572,29	65535,00
572,71	65535,00
573,14	65535,00
573,56	65535,00
573,98	65535,00
574,40	65535,00
574,83	65535,00
575,25	65535,00
575,67	65535,00
576,09	65535,00
576,51	65535,00
576,93	65535,00
577,36	65535,00
577,78	65535,00
578,20	65535,00
578,62	65535,00
579,04	65535,00
579,46	65535,00
579,89	65535,00
580,31	65535,00
580,73	65535,00
581,15	65535,00
581,57	65535,00
581,99	65535,00
582,41	65535,00
582,83	65535,00
583,25	65535,00
583,68	65535,00
584,10	65535,00
584,52	65535,00
584,94	65535,00
585,36	65535,00
585,78	65535,00
586,20	65535,00
586,62	65535,00
587,04	65535,00
587,46	65535,00
587,88	65535,00
588,30	65535,00
588,72	65535,00
589,14	65535,00
589,56	65535,00
589,98	65535,00
590,40	65535,00
590,82	65535,00
591,24	65535,00
591,66	65535,00
592,08	65535,00
592,50	65535,00
592,92	65535,00
593,34	65535,00
593,76	65535,00
594,18	65535,00
594,60	65535,00
595,02	65535,00
595,44	65535,00
595,86	65535,00
596,28	65535,00
596,70	65535,00
597,12	65535,00
597,54	65535,00
597,96	65535,00
598,37	65535,00
598,79	65535,00
599,21	65535,00
599,63	65535,00
600,05	65535,00
600,47	65535,00
600,89	65535,00
601,31	65535,00
601,73	65535,00
602,14	65535,00
602,56	65535,00
602,98	65535,00
603,40	65535,00
603,82	65535,00
604,24	65535,00
604,65	65535,00
605,07	65535,00
605,49	65535,00
605,91	65535,00
606,33	65535,00
606,75	65535,00
607,16	65535,00
607,58	65535,00
608,00	65535,00
608,42	65535,00
608,83	65535,00
609,25	65535,00
609,67	65535,00
610,09	65535,00
610,51	65535,00
610,92	65535,00
611,34	65535,00
611,76	65535,00
612,17	65535,00
612,59	65535,00
613,01	65535,00
613,43	65535,00
613,84	65535,00
614,26	65535,00
614,68	65535,00
615,10	65535,00
615,51	65535,00
615,93	65535,00
616,35	65535,00
616,76	65535,00
617,18	65535,00
617,60	65535,00
618,01	65535,00
618,43	65535,00
618,85	65535,00
619,26	65535,00
619,68	65535,00
620,09	65535,00
620,51	65535,00
620,93	65535,00
621,34	65535,00
621,76	65535,00
622,18	65535,00
622,59	65535,00
623,01	65535,00
623,42	65535,00
623,84	65535,00
624,26	65535,00
624,67	65535,00
625,09	65535,00
625,50	65535,00
625,92	65535,00
626,33	65535,00
626,75	65535,00
627,17	65535,00
627,58	65535,00
628,00	65535,00
628,41	65535,00
628,83	65535,00
629,24	65535,00
629,66	65535,00
630,07	65535,00
630,49	65535,00
630,90	65535,00
631,32	65535,00
631,73	65535,00
632,15	65535,00
632,56	65535,00
632,98	65535,00
633,39	65535,00
633,81	65535,00
634,22	65535,00
634,63	65535,00
635,05	65535,00
635,46	65535,00
635,88	65535,00
636,29	65535,00
636,71	65535,00
637,12	65535,00
637,54	65535,00
637,95	65535,00
638,36	65535,00
638,78	65535,00
639,19	65535,00
639,61	65535,00
640,02	65535,00
640,43	65535,00
640,85	65535,00
641,26	65535,00
641,67	65535,00
642,09	65535,00
642,50	65535,00
642,91	65535,00
643,33	65535,00
643,74	65535,00
644,15	65535,00
644,57	65535,00
644,98	65535,00
645,39	65535,00
645,81	65535,00
646,22	65535,00
646,63	65535,00
647,05	65535,00
647,46	65535,00
647,87	65535,00
648,29	65535,00
648,70	65535,00
649,11	65535,00
649,52	65535,00
649,94	65535,00
650,35	65535,00
650,76	65535,00
651,17	65535,00
651,59	65535,00
652,00	65535,00
652,41	65535,00
652,82	65535,00
653,24	65535,00
653,65	65535,00
654,06	65535,00
654,47	65535,00
654,88	65535,00
655,30	65535,00
655,71	65535,00
656,12	65535,00
656,53	65535,00
656,94	65535,00
657,35	65535,00
657,77	65535,00
658,18	65535,00
658,59	65535,00
659,00	65535,00
659,41	65535,00
659,82	65535,00
660,23	65535,00
660,65	65535,00
661,06	65535,00
661,47	65535,00
661,88	65535,00
662,29	65535,00
662,70	65535,00
663,11	65535,00
663,52	65535,00
663,93	65535,00
664,34	65535,00
664,76	65535,00
665,17	65535,00
665,58	65535,00
665,99	65535,00
666,40	65535,00
666,81	65535,00
667,22	65535,00
667,63	65535,00
668,04	65535,00
668,45	65535,00
668,86	65535,00
669,27	65535,00
669,68	65535,00
670,09	65535,00
670,50	65535,00
670,91	65535,00
671,32	65535,00
671,73	65535,00
672,14	65535,00
672,55	65535,00
672,96	65535,00
673,37	65535,00
673,78	65535,00
674,19	65535,00
674,60	65535,00
675,01	65535,00
675,42	65535,00
675,82	65535,00
676,23	65535,00
676,64	65535,00
677,05	65535,00
677,46	65535,00
677,87	65535,00
678,28	65535,00
678,69	65535,00
679,10	65535,00
679,51	65535,00
679,91	65535,00
680,32	65535,00
680,73	65535,00
681,14	65535,00
681,55	65535,00
681,96	65535,00
682,37	65535,00
682,78	65535,00
683,18	65535,00
683,59	65535,00
684,00	65535,00
684,41	65535,00
684,82	65535,00
685,22	65535,00
685,63	65535,00
686,04	65535,00
686,45	65535,00
686,86	65535,00
687,26	65535,00
687,67	65535,00
688,08	65535,00
688,49	65535,00
688,90	65535,00
689,30	65535,00
689,71	65535,00
690,12	65535,00
690,53	65535,00
690,93	65535,00
691,34	65535,00
691,75	65535,00
692,15	65535,00
692,56	65535,00
692,97	65535,00
693,38	65535,00
693,78	65535,00
694,19	65535,00
694,60	65535,00
695,00	65535,00
695,41	65535,00
695,82	65535,00
696,22	65535,00
696,63	65535,00
697,04	65535,00
697,44	65535,00
697,85	65535,00
698,26	65535,00
698,66	65535,00
699,07	65535,00
699,48	65535,00
699,88	65535,00
700,29	65535,00
700,69	65535,00
701,10	65535,00
701,51	65535,00
701,91	65535,00
702,32	65535,00
702,72	65535,00
703,13	65535,00
703,54	65535,00
703,94	65535,00
704,35	65535,00
704,75	65535,00
705,16	65535,00
705,56	65535,00
705,97	65535,00
706,37	65535,00
706,78	65535,00
707,18	65535,00
707,59	65535,00
707,99	65535,00
708,40	65535,00
708,81	65535,00
709,21	65535,00
709,62	65535,00
710,02	65535,00
710,42	65535,00
710,83	65535,00
711,23	65535,00
711,64	65535,00
712,04	65535,00
712,45	65535,00
712,85	65535,00
713,26	65535,00
713,66	65535,00
714,07	65535,00
714,47	65535,00
714,87	65535,00
715,28	65535,00
715,68	65535,00
716,09	65535,00
716,49	65535,00
716,90	65535,00
717,30	65535,00
717,70	65535,00
718,11	65535,00
718,51	65535,00
718,91	65535,00
719,32	65535,00
719,72	65535,00
720,13	65535,00
720,53	65535,00
720,93	65535,00
721,34	65535,00
721,74	65535,00
722,14	65535,00
722,55	65535,00
722,95	65535,00
723,35	65535,00
723,76	65535,00
724,16	65535,00
724,56	65535,00
724,97	65535,00
725,37	65535,00
725,77	65535,00
726,17	65535,00
726,58	65535,00
726,98	65535,00
727,38	65535,00
727,78	65535,00
728,19	65535,00
728,59	65535,00
728,99	65535,00
729,39	65535,00
729,80	65535,00
730,20	65535,00
730,60	65535,00
731,00	65535,00
731,41	65535,00
731,81	65535,00
732,21	65535,00
732,61	65535,00
733,01	65535,00
733,42	65535,00
733,82	65535,00
734,22	65535,00
734,62	65535,00
735,02	65535,00
735,42	65535,00
735,83	65535,00
736,23	65535,00
736,63	65535,00
737,03	65535,00
737,43	65535,00
737,83	65535,00
738,23	65535,00
738,64	65535,00
739,04	65535,00
739,44	65535,00
739,84	65535,00
740,24	65535,00
740,64	65535,00
741,04	65535,00
741,44	65535,00
741,84	65535,00
742,24	65535,00
742,64	65535,00
743,05	65535,00
743,45	65535,00
743,85	65535,00
744,25	65535,00
744,65	65535,00
745,05	65535,00
745,45	65535,00
745,85	65535,00
746,25	65535,00
746,65	65535,00
747,05	65535,00
747,45	65535,00
747,85	65535,00
748,25	65535,00
748,65	65535,00
749,05	65535,00
749,45	65535,00
749,85	65535,00
750,25	65535,00
750,65	65535,00
751,05	65535,00
751,45	65535,00
751,85	65535,00
752,25	65535,00
752,64	65535,00
753,04	65535,00
753,44	65535,00
753,84	65535,00
754,24	65535,00
754,64	65535,00
755,04	65535,00
755,44	65535,00
755,84	65535,00
756,24	65535,00
756,64	65535,00
757,03	65535,00
757,43	65535,00
757,83	65535,00
758,23	65535,00
758,63	65535,00
759,03	65535,00
759,43	65535,00
759,82	65535,00
760,22	65535,00
760,62	65535,00
761,02	65535,00
761,42	65535,00
761,82	65535,00
762,21	65535,00
762,61	65535,00
763,01	65535,00
763,41	65535,00
763,81	65535,00
764,20	65535,00
764,60	65535,00
765,00	65535,00
765,40	65535,00
765,79	65535,00
766,19	65535,00
766,59	65535,00
766,99	65535,00
767,38	65535,00
767,78	65535,00
768,18	65535,00
768,58	65535,00
768,97	65535,00
769,37	65535,00
769,77	65535,00
770,16	65535,00
770,56	65535,00
770,96	65535,00
771,36	65535,00
771,75	65535,00
772,15	65535,00
772,55	65535,00
772,94	65535,00
773,34	65535,00
773,74	65535,00
774,13	65535,00
774,53	65535,00
774,93	65535,00
775,32	65535,00
775,72	65535,00
776,11	65535,00
776,51	65535,00
776,91	65535,00
777,30	65535,00
777,70	65535,00
778,10	65535,00
778,49	65535,00
778,89	65535,00
779,28	65535,00
779,68	65535,00
780,07	65535,00
780,47	65535,00
780,87	65535,00
781,26	65535,00
781,66	65535,00
782,05	65535,00
782,45	65535,00
782,84	65535,00
783,24	65535,00
783,63	65535,00
784,03	65535,00
784,42	65535,00
784,82	65535,00
785,21	65535,00
785,61	65535,00
786,00	65535,00
786,40	65535,00
786,79	65535,00
787,19	65535,00
787,58	65535,00
787,98	65535,00
788,37	65535,00
788,77	65535,00
789,16	65535,00
789,56	65535,00
789,95	65535,00
790,35	65535,00
790,74	65535,00
791,13	65535,00
791,53	65535,00
791,92	65535,00
792,32	65535,00
792,71	65535,00
793,10	65535,00
793,50	65535,00
793,89	65535,00
794,29	65535,00
794,68	65535,00
795,07	65535,00
795,47	65535,00
795,86	65535,00
796,26	65535,00
796,65	65535,00
797,04	65535,00
797,44	65535,00
797,83	65535,00
798,22	65535,00
798,62	65535,00
799,01	65535,00
799,40	65535,00
799,80	65535,00
800,19	65535,00
800,58	65535,00
800,97	65535,00
801,37	65535,00
801,76	65535,00
802,15	65535,00
802,55	65535,00
802,94	65535,00
803,33	65535,00
803,72	65535,00
804,12	65535,00
804,51	65535,00
804,90	65535,00
805,29	65535,00
805,69	65535,00
806,08	65535,00
806,47	65535,00
806,86	65535,00
807,26	65535,00
807,65	65535,00
808,04	65535,00
808,43	65535,00
808,82	65535,00
809,22	65535,00
809,61	65535,00
810,00	65535,00
810,39	65535,00
810,78	65535,00
811,17	65535,00
811,57	65535,00
811,96	65535,00
812,35	65535,00
812,74	65535,00
813,13	65535,00
813,52	65535,00
813,91	65535,00
814,30	65535,00
814,70	65535,00
815,09	65535,00
815,48	65535,00
815,87	65535,00
816,26	65535,00
816,65	65535,00
817,04	65535,00
817,43	65535,00
817,82	65535,00
818,21	65535,00
818,60	65535,00
819,00	65535,00
819,39	65535,00
819,78	65535,00
820,17	65535,00
820,56	65535,00
820,95	65535,00
821,34	65535,00
821,73	65535,00
822,12	65535,00
822,51	65535,00
822,90	65535,00
823,29	65535,00
823,68	65535,00
824,07	65535,00
824,46	65535,00
824,85	65535,00
825,24	65535,00
825,63	65535,00
826,02	65535,00
826,41	65535,00
826,80	65535,00
827,18	65535,00
827,57	65535,00
827,96	65535,00
828,35	65535,00
828,74	65535,00
829,13	65535,00
829,52	65535,00
829,91	65535,00
830,30	65535,00
830,69	65535,00
831,08	65535,00
831,47	65535,00
831,85	65535,00
832,24	65535,00
832,63	65535,00
833,02	65535,00
833,41	65535,00
833,80	65535,00
834,19	65535,00
834,57	65535,00
834,96	65535,00
835,35	65535,00
835,74	65535,00
836,13	65535,00
836,52	65535,00
836,90	65535,00
837,29	65535,00
837,68	65535,00
838,07	65535,00
838,46	65535,00
838,84	65535,00
839,23	65535,00
839,62	65535,00
840,01	65535,00
840,40	65535,00
840,78	65535,00
841,17	65514,33
841,56	65453,86
841,95	65422,65
842,33	65307,19
842,72	65333,32
843,11	65079,38
843,50	65119,16
843,88	65031,00
844,27	64889,40
844,66	64702,94
845,04	64695,92
845,43	64556,27
845,82	64436,51
846,20	64251,61
846,59	64091,28
846,98	64014,43
847,37	63988,30
847,75	63680,91
848,14	63712,11
848,53	63630,97
848,91	63336,46
849,30	63331,39
849,68	63399,26
850,07	63051,69
850,46	62942,47
850,84	62965,48
851,23	62529,36
851,62	62507,13
852,00	62447,83
852,39	62423,26
852,77	62150,98
853,16	62116,65
853,55	62024,59
853,93	61774,54
854,32	61689,89
854,70	61582,23
855,09	61380,55
855,47	61318,13
855,86	61217,10
856,25	61023,23
856,63	60919,07
857,02	60745,48
857,40	60722,47
857,79	60446,68
858,17	60445,90
858,56	60311,70
858,94	59870,51
859,33	59819,41
859,71	59829,16
860,10	59616,57
860,48	59535,04
860,87	59253,00
861,25	59323,61
861,64	59215,16
862,02	58924,55
862,41	58825,07
862,79	58571,91
863,18	58362,82
863,56	58320,69
863,95	58019,15
864,33	58092,88
864,71	57751,16
865,10	57671,19
865,48	57614,24
865,87	57371,60
866,25	57210,10
866,64	56958,50
867,02	56738,10
867,40	56614,83
867,79	56495,85
868,17	56206,79
868,56	56021,89
868,94	55996,15
869,32	55821,39
869,71	55791,74
870,09	55608,79
870,47	55146,92
870,86	55025,99
871,24	54790,77
871,62	54752,15
872,01	54491,96
872,39	54168,97
872,77	54045,31
873,16	53705,15
873,54	53722,32
873,92	53192,97
874,31	53253,82
874,69	53091,93
875,07	52820,04
875,46	52555,95
875,84	52602,76
876,22	52264,16
876,60	52005,92
876,99	51744,56
877,37	51459,41
877,75	51235,11
878,14	50938,64
878,52	50564,54
878,90	50510,71
879,28	50211,12
879,66	50026,22
880,05	49692,69
880,43	49700,89
880,81	49279,98
881,19	48800,17
881,58	48510,33
881,96	48266,14
882,34	48203,72
882,72	47723,91
883,10	47599,47
883,49	47058,81
883,87	46854,01
884,25	46540,77
884,63	46041,07
885,01	45974,36
885,39	45853,44
885,78	45590,91
886,16	45343,20
886,54	44980,42
886,92	45051,41
887,30	45099,39
887,68	44884,84
888,06	44825,16
888,44	44972,22
888,83	44929,70
889,21	45134,50
889,59	45173,90
889,97	45208,23
890,35	45640,06
890,73	46017,66
891,11	46350,41
891,49	46565,35
891,87	46846,21
892,25	47426,28
892,63	47902,18
893,01	48362,88
893,39	48852,05
893,77	49390,76
894,16	49625,60
894,54	50181,09
894,92	50848,92
895,30	51185,57
895,68	51705,16
896,06	52078,87
896,44	52463,11
896,82	52704,18
897,20	52756,85
897,58	52996,36
897,96	53036,93
898,34	53314,28
898,72	52975,69
899,10	53001,82
899,47	52860,22
899,85	52474,03
900,23	52170,54
900,61	51953,65
900,99	51472,67
901,37	51031,48
901,75	50419,43
902,13	49720,78
902,51	49263,99
902,89	48328,55
903,27	47752,39
903,65	47126,30
904,03	46599,68
904,40	45962,27
904,78	45319,40
905,16	44347,30
905,54	44023,92
905,92	43223,84
906,30	42584,10
906,68	42002,86
907,06	41192,26
907,43	40858,73
907,81	40261,90
908,19	39638,53
908,57	39067,83
908,95	38626,64
909,33	38265,81
909,70	37839,44
910,08	37381,87
910,46	36931,70
910,84	36505,73
911,22	35974,81
911,59	35615,93
911,97	35136,90
912,35	34940,30
912,73	34630,96
913,11	34173,38
913,48	33512,57
913,86	33204,01
914,24	33138,08
914,62	32790,91
914,99	32417,59
915,37	32022,43
915,75	31857,42
916,13	31596,84
916,50	31237,18
916,88	30996,88
917,26	30833,44
917,63	30259,62
918,01	30166,77
918,39	29824,28
918,77	29522,74
919,14	29193,89
919,52	29063,60
919,90	28549,46
920,27	28525,28
920,65	28392,26
921,03	27951,07
921,40	27817,27
921,78	27530,16
922,16	27353,84
922,53	27108,08
922,91	26821,76
923,28	26618,91
923,66	26421,53
924,04	26194,11
924,41	26019,74
924,79	25775,15
925,17	25679,58
925,54	25465,42
925,92	25146,72
926,29	24972,74
926,67	24831,13
927,05	24621,27
927,42	24363,42
927,80	24151,99
928,17	24006,48
928,55	23906,23
928,92	23891,02
929,30	23627,71
929,67	23349,57
930,05	23158,82
930,43	23085,09
930,80	22819,44
931,18	22815,54
931,55	22603,33
931,93	22116,50
932,30	22125,47
932,68	21834,08
933,05	21703,40
933,43	21645,66
933,80	21389,77
934,18	21176,78
934,55	21234,12
934,92	20948,57
935,30	20834,28
935,67	20576,43
936,05	20453,55
936,42	20038,11
936,80	20030,30
937,17	19964,38
937,55	19686,64
937,92	19676,49
938,29	19341,02
938,67	19325,41
939,04	19174,84
939,42	19048,06
939,79	18763,68
940,16	18519,88
940,54	18448,49
940,91	18229,65
941,29	18201,18
941,66	18064,25
942,03	17743,99
942,41	17726,44
942,78	17505,26
943,15	17549,73
943,53	17325,43
943,90	17105,42
944,27	17108,15
944,65	16977,08
945,02	16749,65
945,39	16688,02
945,77	16555,78
946,14	16498,05
946,51	16360,34
946,89	16319,00
947,26	16155,94
947,63	16161,01
948,01	15973,38
948,38	15854,40
948,75	15796,67
949,12	15662,47
949,50	15397,21
949,87	15332,46
950,24	15316,86
950,61	14974,36
950,99	15043,01
951,36	14862,40
951,73	14798,43
952,10	14634,98
952,48	14498,84
952,85	14459,44
953,22	14395,86
953,59	14113,82
953,96	14189,11
954,34	14052,19
954,71	13745,19
955,08	13778,34
955,45	13697,99
955,82	13686,28
956,20	13659,37
956,57	13379,67
956,94	13323,89
957,31	13202,57
957,68	13086,72
958,05	12947,06
958,42	12820,67
958,80	12783,23
959,17	12588,18
959,54	12512,89
959,91	12420,05
960,28	12371,29
960,65	12265,97
961,02	12195,36
961,39	12167,27
961,76	12092,38
962,14	11935,56
962,51	11724,13
962,88	11629,73
963,25	11593,06
963,62	11440,54
963,99	11347,31
964,36	11326,24
964,73	11137,05
965,10	11168,65
965,47	11017,29
965,84	11064,10
966,21	10963,85
966,58	10838,63
966,95	10768,80
967,32	10643,20
967,69	10572,59
968,06	10558,55
968,43	10438,79
968,80	10376,77
969,17	10249,21
969,54	10179,38
969,91	10148,17
970,28	9987,07
970,65	9918,41
971,02	9880,96
971,39	9749,11
971,76	9815,04
972,13	9595,42
972,50	9581,37
972,87	9543,92
973,24	9430,80
973,61	9308,31
973,98	9323,52
974,34	9207,28
974,71	9243,56
975,08	8966,98
975,45	9031,35
975,82	9048,51
976,19	8861,66
976,56	8803,54
976,93	8678,71
977,30	8645,55
977,66	8603,42
978,03	8505,51
978,40	8446,99
978,77	8444,26
979,14	8332,70
979,51	8327,63
979,88	8203,97
980,24	8255,85
980,61	8064,71
980,98	8029,99
981,35	8031,94
981,72	7952,36
982,08	7836,50
982,45	7855,23
982,82	7775,26
983,19	7696,46
983,56	7669,55
983,92	7662,13
984,29	7490,49
984,66	7479,57
985,03	7431,20
985,39	7388,29
985,76	7351,23
986,13	7211,97
986,50	7156,97
986,86	7085,58
987,23	7073,49
987,60	6972,46
987,97	7020,05
988,33	6900,29
988,70	6906,92
989,07	6859,33
989,43	6817,20
989,80	6714,22
990,17	6789,89
990,53	6612,40
990,90	6594,85
991,27	6523,46
991,63	6452,08
992,00	6399,02
992,37	6445,84
992,73	6348,70
993,10	6306,96
993,47	6164,97
993,83	6251,96
994,20	6167,31
994,57	6159,90
994,93	6120,11
995,30	6101,39
995,66	5985,14
996,03	5902,05
996,40	5961,34
996,76	5880,99
997,13	5768,64
997,49	5730,80
997,86	5721,83
998,23	5732,75
998,59	5665,27
998,96	5619,63
999,32	5608,31
999,69	5558,38
1000,05	5547,85
1000,42	5535,76
1000,78	5410,93
1001,15	5327,06
1001,51	5375,43
1001,88	5254,50
1002,24	5321,60
1002,61	5290,00
1002,97	5324,72
1003,34	5244,75
1003,70	5182,73
1004,07	5177,66
1004,43	5116,02
1004,80	5024,74
1005,16	5011,09
1005,53	5066,09
1005,89	4946,33
1006,26	4919,81
1006,62	4865,97
1006,99	4926,05
1007,35	4864,02
1007,72	4890,16
1008,08	4802,00
1008,44	4786,40
1008,81	4732,56
1009,17	4672,49
1009,54	4671,32
1009,90	4578,48
1010,26	4624,12
1010,63	4596,42
1010,99	4533,62
1011,36	4544,93
1011,72	4481,74
1012,08	4456,77
1012,45	4454,04
1012,81	4416,98
1013,17	4473,15
1013,54	4332,33
1013,90	4325,70
1014,26	4308,93
1014,63	4282,01
1014,99	4267,58
1015,35	4231,30
1015,72	4237,93
1016,08	4168,49
1016,44	4182,15
1016,81	4163,03
1017,17	4152,11
1017,53	4136,90
1017,90	4178,25
1018,26	4099,84
1018,62	4036,64
1018,98	4047,96
1019,35	4026,11
1019,71	3978,13
1020,07	4019,87
1020,43	4003,49
1020,80	3932,10
1021,16	3886,85
1021,52	3904,79
1021,88	3912,60
1022,25	3866,96
1022,61	3837,31
1022,97	3827,95
1023,33	3776,45
1023,70	3788,16
1024,06	3680,10
1024,42	3782,31
1024,78	3714,43
1025,14	3726,91
1025,50	3691,02
1025,87	3728,08
1026,23	3640,31
1026,59	3667,23
1026,95	3653,58
1027,31	3597,01
1027,67	3575,56
1028,04	3553,71
1028,40	3588,04
1028,76	3582,58
1029,12	3547,08
1029,48	3517,44
1029,84	3501,44
1030,20	3492,47
1030,56	3483,11
1030,92	3526,02
1031,29	3473,36
1031,65	3438,25
1032,01	3394,95
1032,37	3438,64
1032,73	3463,60
1033,09	3441,37
1033,45	3425,76
1033,81	3373,10
1034,17	3370,37
1034,53	3277,92
1034,89	3310,69
1035,25	3310,69
1035,61	3310,69
>>>>>End Processed Spectral Data<<<<<
