SpectraSuite Data File
++++++++++++++++++++++++++++++++++++
Date: Wed Feb 24 12:56:24 EET 2016
User: OO Maya
Dark Spectrum Present: No
Reference Spectrum Present: No
Number of Sampled Component Spectra: 1
Spectrometers: FLMS00673
Integration Time (usec): 1000000 (FLMS00673)
Spectra Averaged: 6 (FLMS00673)
Boxcar Smoothing: 0 (FLMS00673)
Correct for Electrical Dark: No (FLMS00673)
Strobe/Lamp Enabled: No (FLMS00673)
Correct for Detector Non-linearity: No (FLMS00673)
Correct for Stray Light: No (FLMS00673)
Number of Pixels in Processed Spectrum: 2048
>>>>>Begin Processed Spectral Data<<<<<
188,41	2179,82
188,88	2179,82
189,35	2179,82
189,82	2123,26
190,28	2205,95
190,75	2220,78
191,22	2233,26
191,68	2216,10
192,15	2217,66
192,62	2367,84
193,08	2223,90
193,55	2266,81
194,02	2230,53
194,48	2287,48
194,95	2387,74
195,42	2332,73
195,88	2389,30
196,35	2404,12
196,82	2419,72
197,28	2476,68
197,75	2450,93
198,22	2450,93
198,68	2532,46
199,15	2480,97
199,61	2516,86
200,08	2581,22
200,55	2502,81
201,01	2545,33
201,48	2647,93
201,94	2619,84
202,41	2553,52
202,88	2589,80
203,34	2598,77
203,81	3182,35
204,27	2688,50
204,74	2685,76
205,20	2613,60
205,67	2637,00
206,13	2644,42
206,60	2668,99
207,06	2628,81
207,53	2651,05
208,00	2667,43
208,46	2655,73
208,93	2712,29
209,39	2683,42
209,86	2646,76
210,32	2723,21
210,78	2783,68
211,25	2625,69
211,71	2676,40
212,18	2634,66
212,64	2619,45
213,11	2754,42
213,57	2666,65
214,04	2653,39
214,50	2617,11
214,97	2929,18
215,43	2782,12
215,89	2633,10
216,36	2638,56
216,82	2625,30
217,29	2602,29
217,75	2627,25
218,22	2626,08
218,68	2692,01
219,14	2692,01
219,61	2696,69
220,07	2646,76
220,53	2638,56
221,00	2642,07
221,46	2627,64
221,93	2652,61
222,39	2588,63
222,85	2698,64
223,32	2602,68
223,78	2601,90
224,24	2840,24
224,71	2635,44
225,17	2585,12
225,63	2621,40
226,10	2643,64
226,56	2621,79
227,02	2660,41
227,48	2616,33
227,95	2590,58
228,41	2614,38
228,87	2614,38
229,34	2736,87
229,80	2618,67
230,26	2601,12
230,72	2646,76
231,19	2679,91
231,65	2617,11
232,11	2615,94
232,57	2622,57
233,04	2589,41
233,50	2591,75
233,96	2601,90
234,42	2639,73
234,88	2621,40
235,35	2667,04
235,81	2612,43
236,27	2656,12
236,73	2636,22
237,19	2630,76
237,66	2647,15
238,12	2642,46
238,58	2626,86
239,04	2629,59
239,50	2685,76
239,96	2646,76
240,43	2605,02
240,89	2706,05
241,35	2606,19
241,81	2613,21
242,27	2606,97
242,73	2606,97
243,19	2645,98
243,66	2634,66
244,12	2617,89
244,58	2671,72
245,04	2615,94
245,50	2633,49
245,96	2655,73
246,42	2617,89
246,88	2652,22
247,34	2833,22
247,80	2655,34
248,26	2823,47
248,72	2664,31
249,18	2709,17
249,65	2630,37
250,11	2638,95
250,57	2594,48
251,03	2624,52
251,49	2623,74
251,95	2626,47
252,41	2635,44
252,87	2629,20
253,33	2648,71
253,79	2694,35
254,25	2641,68
254,71	2693,96
255,17	2590,97
255,63	2646,37
256,09	2630,37
256,55	2619,45
257,01	2738,43
257,47	2732,58
257,92	2697,08
258,38	2714,63
258,84	2731,80
259,30	2671,33
259,76	2638,95
260,22	2672,50
260,68	2619,84
261,14	2645,98
261,60	2645,98
262,06	2709,56
262,52	2747,01
262,98	2721,26
263,43	2709,17
263,89	2656,90
264,35	2626,86
264,81	2603,46
265,27	2638,95
265,73	2608,14
266,19	2663,92
266,65	2648,32
267,10	2582,39
267,56	2600,34
268,02	2635,05
268,48	2598,38
268,94	2696,30
269,40	2659,63
269,85	2647,15
270,31	2637,78
270,77	2614,38
271,23	2651,83
271,69	2626,86
272,14	2711,90
272,60	2656,90
273,06	2609,31
273,52	2715,41
273,98	2632,71
274,43	2640,12
274,89	2645,20
275,35	2622,18
275,81	2772,75
276,26	2653,78
276,72	2629,20
277,18	2590,19
277,63	2817,61
278,09	2790,70
278,55	2625,69
279,01	2691,62
279,46	2658,46
279,92	2606,97
280,38	2624,52
280,83	2650,27
281,29	2633,10
281,75	2619,84
282,20	2655,73
282,66	2684,20
283,12	2634,27
283,57	2649,10
284,03	2664,31
284,49	2644,42
284,94	2705,66
285,40	2638,95
285,86	2706,44
286,31	2654,95
286,77	2644,03
287,23	2674,45
287,68	2620,62
288,14	2687,72
288,59	2624,13
289,05	2693,57
289,51	2728,67
289,96	2644,81
290,42	2702,54
290,87	2642,85
291,33	2635,05
291,78	2645,59
292,24	2639,34
292,70	2621,79
293,15	2663,14
293,61	2677,18
294,06	2770,02
294,52	2624,52
294,97	2621,01
295,43	2710,73
295,88	2660,80
296,34	2688,50
296,79	2635,83
297,25	2627,64
297,70	2637,78
298,16	2638,56
298,61	2687,33
299,07	2663,92
299,52	2692,79
299,98	2692,01
300,43	2887,05
300,89	2666,65
301,34	2635,05
301,80	2683,81
302,25	2710,73
302,71	2756,37
303,16	2692,01
303,61	2671,72
304,07	2743,89
304,52	2653,00
304,98	2618,28
305,43	2691,62
305,88	2624,13
306,34	2660,80
306,79	2736,09
307,25	2757,54
307,70	2682,25
308,15	2678,74
308,61	2617,89
309,06	2764,56
309,52	2691,23
309,97	2650,27
310,42	2729,06
310,88	2695,91
311,33	2730,62
311,78	2671,72
312,24	2692,79
312,69	2703,71
313,14	2634,27
313,60	2659,63
314,05	2628,42
314,50	2706,44
314,95	2638,17
315,41	2793,82
315,86	2743,11
316,31	2702,93
316,77	2665,87
317,22	2639,34
317,67	2638,17
318,12	2690,45
318,58	2686,15
319,03	2757,54
319,48	2665,09
319,93	2751,30
320,39	2622,57
320,84	2644,03
321,29	2658,85
321,74	2652,22
322,20	2674,45
322,65	2624,91
323,10	2677,57
323,55	2681,08
324,00	2630,37
324,46	2660,80
324,91	2592,14
325,36	2621,40
325,81	2615,94
326,26	2697,08
326,71	2632,32
327,17	2758,71
327,62	2667,43
328,07	2690,45
328,52	2740,77
328,97	2682,25
329,42	2646,76
329,87	2687,33
330,33	2655,73
330,78	2779,78
331,23	2670,16
331,68	2660,41
332,13	2694,74
332,58	2685,76
333,03	2640,51
333,48	2663,14
333,93	2711,12
334,38	2646,76
334,84	2654,17
335,29	2704,49
335,74	2656,12
336,19	2678,74
336,64	2672,11
337,09	2668,21
337,54	2662,75
337,99	2656,90
338,44	2676,79
338,89	2723,60
339,34	2672,89
339,79	2629,59
340,24	2569,91
340,69	2699,03
341,14	2754,03
341,59	2715,80
342,04	2612,82
342,49	2659,63
342,94	2610,87
343,39	2798,89
343,84	2713,85
344,29	2693,96
344,74	2689,67
345,19	2685,76
345,64	2662,75
346,09	2664,70
346,54	2673,28
346,99	2633,49
347,43	2792,65
347,88	2704,49
348,33	2761,05
348,78	2725,16
349,23	2698,25
349,68	2679,52
350,13	2679,91
350,58	2644,42
351,03	2672,50
351,48	2640,12
351,92	2642,85
352,37	2704,10
352,82	2638,17
353,27	2681,86
353,72	2674,84
354,17	2656,90
354,62	2699,42
355,06	2663,53
355,51	2638,56
355,96	2716,58
356,41	2679,91
356,86	2631,15
357,30	2600,34
357,75	2626,86
358,20	2630,37
358,65	2706,05
359,10	2750,91
359,54	2667,82
359,99	2646,37
360,44	2687,72
360,89	2659,63
361,34	2648,71
361,78	2637,78
362,23	2681,86
362,68	2684,98
363,13	2605,80
363,57	2647,54
364,02	2701,76
364,47	2741,16
364,91	2628,03
365,36	2635,83
365,81	2641,68
366,26	2620,62
366,70	2757,54
367,15	2664,31
367,60	2629,20
368,04	2709,56
368,49	2636,61
368,94	2707,22
369,38	2672,11
369,83	2714,63
370,28	2634,66
370,72	2654,56
371,17	2791,48
371,62	2622,96
372,06	2696,69
372,51	2788,75
372,96	2650,27
373,40	2628,42
373,85	2652,22
374,29	2621,79
374,74	2719,70
375,19	2630,37
375,63	2625,69
376,08	2663,92
376,52	2642,46
376,97	2803,18
377,42	2686,15
377,86	2670,16
378,31	2638,17
378,75	2647,93
379,20	2690,84
379,64	2657,29
380,09	2658,07
380,53	2755,98
380,98	2680,30
381,43	2664,31
381,87	2740,77
382,32	2665,48
382,76	2659,63
383,21	2688,89
383,65	2667,43
384,10	2644,42
384,54	2679,13
384,99	2675,23
385,43	2677,57
385,88	2678,74
386,32	2734,92
386,76	2623,35
387,21	2784,07
387,65	2718,53
388,10	2723,99
388,54	2715,02
388,99	2796,55
389,43	2894,07
389,88	2679,13
390,32	2666,26
390,76	2697,47
391,21	2703,32
391,65	2704,49
392,10	2960,00
392,54	2679,91
392,98	2706,05
393,43	2727,11
393,87	2616,33
394,32	2646,76
394,76	2661,19
395,20	2626,47
395,65	2705,27
396,09	2692,79
396,53	2680,30
396,98	2638,56
397,42	2654,95
397,86	2688,50
398,31	2654,56
398,75	2673,67
399,19	2620,62
399,64	2615,94
400,08	2631,54
400,52	2644,03
400,97	2674,45
401,41	2633,88
401,85	2704,49
402,30	2658,07
402,74	2670,55
403,18	2678,74
403,62	2663,92
404,07	2654,17
404,51	2677,18
404,95	2703,32
405,39	2669,77
405,84	2646,76
406,28	2676,01
406,72	2642,07
407,16	2806,69
407,61	2650,66
408,05	2660,80
408,49	2681,47
408,93	2723,60
409,37	2674,06
409,82	2686,15
410,26	2621,40
410,70	2706,44
411,14	2640,90
411,58	2706,83
412,02	2672,89
412,47	2694,74
412,91	2640,12
413,35	2716,19
413,79	2761,83
414,23	2691,62
414,67	2689,67
415,12	2761,83
415,56	2649,49
416,00	2711,90
416,44	2664,70
416,88	2711,90
417,32	2694,35
417,76	2644,81
418,20	2773,92
418,64	2618,67
419,08	2692,40
419,53	2668,99
419,97	2613,60
420,41	2652,22
420,85	2635,44
421,29	2739,60
421,73	2622,18
422,17	2662,75
422,61	2701,37
423,05	2637,39
423,49	2663,53
423,93	2665,87
424,37	2656,51
424,81	2762,61
425,25	2661,97
425,69	2670,16
426,13	2652,22
426,57	2696,30
427,01	2685,76
427,45	2661,58
427,89	2672,50
428,33	2633,88
428,77	2639,34
429,21	2670,16
429,65	2648,32
430,09	2651,44
430,53	2653,39
430,97	2677,18
431,41	2709,95
431,85	2747,01
432,29	2638,56
432,73	2663,92
433,16	2654,95
433,60	2638,17
434,04	2674,84
434,48	2701,76
434,92	2667,43
435,36	2666,26
435,80	2780,17
436,24	2678,35
436,68	2654,95
437,12	2676,01
437,55	2725,55
437,99	2692,01
438,43	2671,72
438,87	2719,70
439,31	2669,38
439,75	2656,90
440,18	2677,96
440,62	2666,65
441,06	2663,53
441,50	2717,36
441,94	2700,59
442,38	2631,54
442,81	2649,49
443,25	2603,85
443,69	2622,96
444,13	2636,22
444,57	2646,76
445,00	2697,86
445,44	2667,04
445,88	2714,24
446,32	2706,05
446,75	2642,07
447,19	2652,22
447,63	2791,09
448,07	2640,51
448,50	2679,52
448,94	2649,49
449,38	2676,79
449,82	2673,28
450,25	2643,64
450,69	2677,96
451,13	2821,52
451,56	2645,20
452,00	2731,41
452,44	2654,17
452,87	2641,68
453,31	2653,39
453,75	2618,28
454,18	2617,50
454,62	2666,65
455,06	2674,84
455,49	2699,81
455,93	2634,27
456,37	2637,78
456,80	2628,03
457,24	2615,94
457,68	2715,80
458,11	2697,86
458,55	2684,20
458,98	2696,69
459,42	2708,78
459,86	2683,42
460,29	2664,70
460,73	2742,33
461,16	2600,34
461,60	2682,64
462,04	2723,21
462,47	2661,58
462,91	2632,32
463,34	2630,76
463,78	2720,48
464,21	2646,37
464,65	2742,72
465,08	2674,84
465,52	2642,07
465,96	2739,60
466,39	2683,81
466,83	2740,38
467,26	2699,42
467,70	2681,08
468,13	2649,88
468,57	2643,64
469,00	2752,47
469,44	2633,10
469,87	2630,76
470,31	2620,62
470,74	2686,54
471,17	2736,09
471,61	2612,43
472,04	2716,19
472,48	2747,40
472,91	2663,14
473,35	2646,76
473,78	2751,69
474,22	2646,76
474,65	2778,61
475,08	2713,07
475,52	2685,37
475,95	2698,25
476,39	2651,05
476,82	2666,26
477,25	2638,17
477,69	2666,65
478,12	2726,33
478,56	2830,10
478,99	2716,19
479,42	2718,53
479,86	2668,99
480,29	2657,68
480,72	2662,75
481,16	2638,17
481,59	2693,96
482,02	2663,92
482,46	2737,65
482,89	2659,63
483,32	2703,71
483,76	2618,28
484,19	2667,43
484,62	2627,25
485,06	2699,81
485,49	2622,96
485,92	2699,03
486,35	2720,87
486,79	2613,60
487,22	2789,92
487,65	2881,20
488,09	2637,00
488,52	2652,22
488,95	2655,73
489,38	2716,19
489,82	2727,50
490,25	2693,57
490,68	2653,78
491,11	2635,83
491,54	2606,19
491,98	2626,47
492,41	2651,05
492,84	2680,69
493,27	2645,59
493,70	2729,84
494,14	2677,57
494,57	2713,85
495,00	2669,77
495,43	2727,50
495,86	2704,10
496,30	2752,47
496,73	2656,90
497,16	2667,82
497,59	2618,28
498,02	2666,26
498,45	2623,74
498,88	2651,44
499,32	2656,12
499,75	2635,83
500,18	2695,52
500,61	2627,25
501,04	2743,89
501,47	2656,51
501,90	2645,98
502,33	2644,42
502,76	2630,37
503,19	2702,54
503,62	2664,31
504,06	2650,66
504,49	2625,30
504,92	2667,43
505,35	2642,07
505,78	2668,21
506,21	2638,17
506,64	2683,42
507,07	2693,18
507,50	2700,20
507,93	2618,67
508,36	2664,70
508,79	2637,78
509,22	2635,05
509,65	2666,26
510,08	2738,43
510,51	2674,84
510,94	2695,52
511,37	2721,26
511,80	2666,26
512,23	2649,10
512,66	2657,68
513,09	2674,06
513,52	2668,21
513,95	2690,06
514,38	2771,97
514,81	2708,78
515,23	2651,83
515,66	2767,68
516,09	2751,69
516,52	2651,83
516,95	2674,84
517,38	2681,47
517,81	2624,91
518,24	2701,76
518,67	2759,49
519,10	2665,87
519,53	2657,29
519,95	2732,97
520,38	2701,37
520,81	2661,97
521,24	2642,46
521,67	2638,17
522,10	2626,47
522,53	2642,46
522,95	2665,48
523,38	2748,96
523,81	2647,54
524,24	2676,79
524,67	2758,71
525,09	2658,46
525,52	2683,81
525,95	2647,93
526,38	2652,61
526,81	2668,21
527,23	2760,66
527,66	2723,99
528,09	2710,34
528,52	2699,81
528,95	2653,39
529,37	2716,58
529,80	2632,71
530,23	2648,71
530,66	2654,95
531,08	2665,87
531,51	2667,04
531,94	2703,32
532,37	2662,75
532,79	2651,05
533,22	2645,20
533,65	2699,03
534,07	2692,01
534,50	2633,10
534,93	2752,47
535,35	2665,87
535,78	2636,61
536,21	2713,46
536,63	2763,78
537,06	2656,90
537,49	2711,90
537,91	2644,81
538,34	2624,13
538,77	2703,32
539,19	2690,84
539,62	2674,45
540,05	2707,22
540,47	2692,01
540,90	2674,06
541,33	2690,06
541,75	2684,59
542,18	2680,30
542,60	2742,72
543,03	2695,91
543,45	2607,75
543,88	2684,98
544,31	2713,07
544,73	2664,70
545,16	2714,63
545,58	2612,82
546,01	2658,46
546,43	2725,94
546,86	2621,40
547,29	2634,27
547,71	2713,46
548,14	2637,78
548,56	2714,24
548,99	2621,01
549,41	2701,76
549,84	2631,93
550,26	2776,27
550,69	2713,46
551,11	2632,71
551,54	2674,45
551,96	2674,06
552,39	2683,42
552,81	2685,37
553,24	2706,44
553,66	2699,42
554,08	2640,90
554,51	2696,30
554,93	2731,02
555,36	2644,81
555,78	2653,78
556,21	2643,25
556,63	2640,12
557,06	2666,65
557,48	2644,03
557,90	2632,71
558,33	2770,80
558,75	2644,81
559,18	2771,58
559,60	2766,51
560,02	2668,99
560,45	2623,74
560,87	2736,48
561,29	2670,16
561,72	2619,06
562,14	2639,34
562,57	2660,02
562,99	2661,58
563,41	2683,03
563,84	2672,11
564,26	2634,27
564,68	2665,09
565,11	2692,79
565,53	2638,17
565,95	2659,63
566,37	2617,11
566,80	2658,07
567,22	2626,47
567,64	2625,69
568,07	2651,83
568,49	2906,17
568,91	2667,82
569,33	2801,62
569,76	2656,12
570,18	2687,33
570,60	2686,54
571,03	2762,61
571,45	2700,59
571,87	2669,77
572,29	2642,85
572,71	2718,14
573,14	2649,88
573,56	2638,56
573,98	2650,27
574,40	2741,16
574,83	2626,86
575,25	2650,27
575,67	2640,12
576,09	2631,15
576,51	2641,29
576,93	2637,78
577,36	2668,99
577,78	2701,37
578,20	2649,49
578,62	2672,11
579,04	2646,76
579,46	2675,23
579,89	2703,71
580,31	2664,70
580,73	2673,67
581,15	2691,23
581,57	2625,69
581,99	2599,16
582,41	2628,81
582,83	2760,66
583,25	2637,00
583,68	2689,28
584,10	2658,85
584,52	2629,20
584,94	2648,32
585,36	2620,23
585,78	2652,22
586,20	2644,03
586,62	2644,42
587,04	2640,90
587,46	2617,50
587,88	2641,68
588,30	2655,73
588,72	2631,54
589,14	2633,49
589,56	2592,53
589,98	2648,71
590,40	2692,40
590,82	2637,00
591,24	2636,61
591,66	2636,22
592,08	2651,05
592,50	2691,23
592,92	2651,44
593,34	2674,84
593,76	2653,39
594,18	2670,16
594,60	2656,12
595,02	2663,14
595,44	2684,20
595,86	2729,84
596,28	2727,11
596,70	2672,11
597,12	2631,15
597,54	2638,56
597,96	2635,44
598,37	2635,05
598,79	2669,77
599,21	2725,94
599,63	2708,39
600,05	2614,38
600,47	2759,88
600,89	2612,04
601,31	2644,81
601,73	2627,64
602,14	2775,49
602,56	2728,67
602,98	2783,29
603,40	2755,59
603,82	2664,31
604,24	2613,21
604,65	2682,25
605,07	2699,81
605,49	2639,34
605,91	2706,05
606,33	2736,48
606,75	2668,60
607,16	2642,46
607,58	2679,91
608,00	2633,10
608,42	2654,17
608,83	2654,17
609,25	2721,26
609,67	2730,23
610,09	2623,35
610,51	2638,56
610,92	2625,69
611,34	2669,38
611,76	2607,75
612,17	2617,11
612,59	2684,98
613,01	2652,22
613,43	2627,64
613,84	2661,97
614,26	2649,10
614,68	2660,02
615,10	2642,85
615,51	2689,28
615,93	2670,16
616,35	2685,76
616,76	2672,50
617,18	2667,04
617,60	2638,56
618,01	2654,17
618,43	2697,86
618,85	2631,93
619,26	2669,38
619,68	2661,97
620,09	2646,37
620,51	2646,37
620,93	2650,66
621,34	2611,26
621,76	2685,37
622,18	2675,23
622,59	2692,01
623,01	2748,96
623,42	2747,79
623,84	2694,35
624,26	2620,23
624,67	2703,71
625,09	2754,03
625,50	2640,12
625,92	2631,93
626,33	2726,72
626,75	2719,31
627,17	2669,38
627,58	2751,30
628,00	2660,80
628,41	2656,12
628,83	2663,53
629,24	2652,22
629,66	2706,83
630,07	2625,69
630,49	2690,84
630,90	2730,63
631,32	2763,78
631,73	2647,54
632,15	2691,23
632,56	2636,22
632,98	2616,72
633,39	2658,07
633,81	2636,61
634,22	2663,92
634,63	2699,81
635,05	2649,49
635,46	2642,46
635,88	2661,58
636,29	2621,40
636,71	2697,47
637,12	2736,09
637,54	2681,47
637,95	2670,16
638,36	2763,39
638,78	2619,84
639,19	2650,66
639,61	2639,73
640,02	2627,25
640,43	2654,95
640,85	2643,64
641,26	2634,27
641,67	2636,61
642,09	2788,75
642,50	2644,42
642,91	2651,44
643,33	2639,73
643,74	2703,71
644,15	2655,34
644,57	2692,01
644,98	2649,49
645,39	2641,68
645,81	2664,70
646,22	2667,04
646,63	2710,34
647,05	2654,17
647,46	2661,19
647,87	2664,31
648,29	2731,41
648,70	2716,19
649,11	2671,72
649,52	2623,35
649,94	2697,86
650,35	2666,65
650,76	2634,27
651,17	2686,15
651,59	2691,62
652,00	2654,95
652,41	2701,76
652,82	2708,00
653,24	2606,58
653,65	2671,33
654,06	2676,40
654,47	2676,40
654,88	2734,53
655,30	2690,45
655,71	2665,09
656,12	2619,45
656,53	2631,93
656,94	2647,93
657,35	2708,78
657,77	2702,93
658,18	2615,55
658,59	2752,08
659,00	2644,42
659,41	2695,91
659,82	2667,43
660,23	2637,78
660,65	2688,50
661,06	2709,95
661,47	2707,22
661,88	2650,27
662,29	2655,73
662,70	2677,57
663,11	2655,34
663,52	2590,58
663,93	2661,97
664,34	2739,99
664,76	2676,40
665,17	2678,74
665,58	2672,11
665,99	2620,62
666,40	2631,15
666,81	2713,46
667,22	2684,20
667,63	2749,74
668,04	2654,95
668,45	2710,34
668,86	2657,68
669,27	2614,77
669,68	2766,12
670,09	2649,88
670,50	2656,51
670,91	2632,32
671,32	2705,27
671,73	2668,21
672,14	2716,97
672,55	2635,05
672,96	2647,15
673,37	2661,58
673,78	2636,22
674,19	2695,13
674,60	2727,50
675,01	2679,52
675,42	2713,46
675,82	2674,45
676,23	2677,96
676,64	2828,93
677,05	2707,22
677,46	2772,36
677,87	2694,74
678,28	2722,43
678,69	2677,96
679,10	2679,91
679,51	2779,39
679,91	2752,86
680,32	2666,65
680,73	2683,03
681,14	2645,98
681,55	2658,07
681,96	2733,75
682,37	2663,53
682,78	2657,68
683,18	2646,76
683,59	2654,56
684,00	2784,07
684,41	2660,80
684,82	2669,77
685,22	2761,83
685,63	2690,06
686,04	2664,31
686,45	2672,11
686,86	2715,80
687,26	2642,07
687,67	2702,54
688,08	2640,90
688,49	2622,18
688,90	2727,50
689,30	2789,14
689,71	2669,38
690,12	2676,79
690,53	2732,97
690,93	2646,37
691,34	2609,31
691,75	2692,79
692,15	2652,22
692,56	2710,73
692,97	2644,03
693,38	2689,28
693,78	2629,59
694,19	2645,98
694,60	2635,05
695,00	2661,19
695,41	2641,68
695,82	2640,12
696,22	2653,78
696,63	2686,15
697,04	2735,31
697,44	2668,60
697,85	2644,81
698,26	2700,98
698,66	2759,88
699,07	2690,06
699,48	2672,11
699,88	2666,26
700,29	2736,48
700,69	2654,56
701,10	2699,03
701,51	2651,05
701,91	2670,94
702,32	2686,54
702,72	2745,45
703,13	2720,87
703,54	2637,39
703,94	2723,21
704,35	2701,37
704,75	2665,48
705,16	2695,91
705,56	2685,37
705,97	2701,76
706,37	2659,63
706,78	2709,56
707,18	2627,64
707,59	2658,85
707,99	2606,58
708,40	2636,22
708,81	2676,79
709,21	2727,89
709,62	2641,29
710,02	2644,81
710,42	2667,04
710,83	2668,21
711,23	2693,96
711,64	2683,03
712,04	2733,75
712,45	2669,77
712,85	2657,68
713,26	2732,19
713,66	2658,07
714,07	2660,41
714,47	2664,70
714,87	2647,54
715,28	2656,12
715,68	2652,61
716,09	2646,37
716,49	2693,18
716,90	2647,15
717,30	2640,12
717,70	2625,30
718,11	2638,17
718,51	2670,94
718,91	2630,76
719,32	2651,05
719,72	2640,51
720,13	2650,27
720,53	2657,68
720,93	2724,38
721,34	2651,83
721,74	2709,17
722,14	2706,44
722,55	2679,91
722,95	2669,38
723,35	2633,49
723,76	2719,31
724,16	2655,34
724,56	2598,38
724,97	2634,27
725,37	2688,11
725,77	2657,29
726,17	2629,20
726,58	2648,71
726,98	2625,69
727,38	2630,37
727,78	2603,46
728,19	2638,17
728,59	2708,00
728,99	2651,83
729,39	2634,27
729,80	2619,45
730,20	2627,64
730,60	2696,30
731,00	2617,50
731,41	2686,94
731,81	2689,28
732,21	2695,13
732,61	2713,85
733,01	2641,68
733,42	2723,60
733,82	2693,96
734,22	2673,67
734,62	2744,28
735,02	2760,66
735,42	2632,71
735,83	2705,27
736,23	2710,73
736,63	2686,15
737,03	2774,32
737,43	2819,96
737,83	2676,01
738,23	2705,66
738,64	2751,30
739,04	2682,25
739,44	2693,57
739,84	2660,80
740,24	2655,73
740,64	2647,93
741,04	2674,84
741,44	2627,25
741,84	2637,78
742,24	2670,16
742,64	2692,01
743,05	2615,16
743,45	2652,22
743,85	2645,98
744,25	2694,35
744,65	2625,30
745,05	2683,81
745,45	2698,25
745,85	2768,46
746,25	2777,44
746,65	2670,55
747,05	2656,51
747,45	2717,36
747,85	2678,35
748,25	2672,50
748,65	2680,69
749,05	2629,20
749,45	2654,56
749,85	2634,66
750,25	2659,24
750,65	2642,46
751,05	2650,27
751,45	2625,30
751,85	2668,99
752,25	2637,78
752,64	2654,95
753,04	2686,54
753,44	2704,49
753,84	2664,70
754,24	2647,93
754,64	2599,95
755,04	2761,83
755,44	2665,48
755,84	2665,48
756,24	2624,52
756,64	2650,27
757,03	2758,32
757,43	2682,25
757,83	2644,03
758,23	2637,78
758,63	2646,37
759,03	2759,10
759,43	2624,13
759,82	2626,08
760,22	2615,55
760,62	2652,61
761,02	2688,50
761,42	2747,79
761,82	2724,77
762,21	2670,94
762,61	2667,04
763,01	2770,80
763,41	2720,48
763,81	2692,01
764,20	2630,37
764,60	2758,71
765,00	2659,63
765,40	2751,30
765,79	2697,08
766,19	2680,69
766,59	2647,15
766,99	2657,68
767,38	2665,09
767,78	2620,23
768,18	2602,29
768,58	2725,94
768,97	2667,43
769,37	2754,42
769,77	2644,81
770,16	2642,07
770,56	2665,48
770,96	2616,33
771,36	2631,15
771,75	2672,89
772,15	2745,06
772,55	2718,92
772,94	2662,75
773,34	2622,96
773,74	2628,81
774,13	2666,65
774,53	2686,15
774,93	2722,04
775,32	2671,72
775,72	2642,07
776,11	2665,09
776,51	2628,03
776,91	2639,34
777,30	2646,37
777,70	2635,05
778,10	2683,03
778,49	2667,43
778,89	2646,76
779,28	2662,75
779,68	2641,29
780,07	2636,22
780,47	2665,48
780,87	2649,49
781,26	2629,59
781,66	2696,30
782,05	2611,65
782,45	2660,02
782,84	2647,15
783,24	2665,87
783,63	2706,83
784,03	2629,59
784,42	2653,78
784,82	2764,17
785,21	2717,36
785,61	2763,78
786,00	2670,55
786,40	2619,84
786,79	2604,24
787,19	2685,37
787,58	2698,64
787,98	2724,38
788,37	2673,28
788,77	2642,85
789,16	2695,13
789,56	2670,16
789,95	2667,04
790,35	2824,64
790,74	2783,29
791,13	2820,35
791,53	2678,35
791,92	2700,59
792,32	2696,30
792,71	2608,53
793,10	2657,68
793,50	2672,50
793,89	2650,66
794,29	2658,85
794,68	2665,09
795,07	2657,29
795,47	2677,96
795,86	2605,02
796,26	2629,98
796,65	2653,39
797,04	2651,44
797,44	2638,17
797,83	2638,17
798,22	2672,89
798,62	2800,84
799,01	2707,22
799,40	2672,11
799,80	2777,05
800,19	2618,67
800,58	2683,81
800,97	2694,74
801,37	2703,71
801,76	2713,46
802,15	2655,34
802,55	2665,87
802,94	2637,39
803,33	4434,14
803,72	2865,21
804,12	2658,46
804,51	2688,50
804,90	2693,96
805,29	2661,58
805,69	2632,71
806,08	2651,44
806,47	2627,25
806,86	2700,59
807,26	2654,56
807,65	2624,13
808,04	2659,63
808,43	2702,15
808,82	2688,11
809,22	2706,44
809,61	2646,76
810,00	2727,50
810,39	2725,94
810,78	2676,40
811,17	2692,79
811,57	2736,48
811,96	2642,46
812,35	2620,23
812,74	2717,36
813,13	2664,70
813,52	2601,51
813,91	2627,64
814,30	2676,40
814,70	2767,68
815,09	2669,77
815,48	2681,47
815,87	2742,33
816,26	2654,17
816,65	2781,73
817,04	2676,79
817,43	2672,89
817,82	2623,74
818,21	2743,89
818,60	2635,05
819,00	2689,28
819,39	2655,73
819,78	2660,80
820,17	2649,88
820,56	2625,69
820,95	2635,44
821,34	2661,58
821,73	2610,87
822,12	2640,12
822,51	2696,30
822,90	2752,47
823,29	2620,62
823,68	2755,59
824,07	2623,35
824,46	2653,78
824,85	2630,76
825,24	2720,87
825,63	2693,18
826,02	2736,87
826,41	2662,36
826,80	2616,72
827,18	2631,93
827,57	2647,93
827,96	2708,00
828,35	2683,81
828,74	2656,12
829,13	2651,44
829,52	2763,00
829,91	2732,19
830,30	2668,99
830,69	2564,45
831,08	2670,94
831,47	2710,73
831,85	2747,01
832,24	2610,48
832,63	2634,27
833,02	2606,19
833,41	2674,45
833,80	2715,80
834,19	2720,87
834,57	2637,00
834,96	2651,05
835,35	2660,41
835,74	2689,67
836,13	2700,59
836,52	2751,69
836,90	2651,44
837,29	2761,44
837,68	2667,82
838,07	2619,45
838,46	2688,11
838,84	2714,63
839,23	2716,97
839,62	2792,65
840,01	2695,13
840,40	2663,53
840,78	2653,78
841,17	2699,42
841,56	2621,01
841,95	2732,19
842,33	2691,23
842,72	2645,59
843,11	2677,57
843,50	2630,76
843,88	2656,12
844,27	2681,86
844,66	2638,95
845,04	2709,56
845,43	2661,19
845,82	2659,63
846,20	2655,34
846,59	2646,37
846,98	2650,27
847,37	2735,31
847,75	2693,18
848,14	2802,40
848,53	2759,49
848,91	2711,51
849,30	2736,09
849,68	2635,05
850,07	2739,60
850,46	2674,06
850,84	2697,47
851,23	2672,50
851,62	2676,01
852,00	2666,26
852,39	2625,69
852,77	2628,81
853,16	2676,40
853,55	2695,13
853,93	2669,38
854,32	2664,70
854,70	2666,26
855,09	2640,12
855,47	2651,83
855,86	2660,02
856,25	2652,61
856,63	2751,69
857,02	2664,31
857,40	2709,95
857,79	2672,11
858,17	2671,72
858,56	2658,07
858,94	2637,39
859,33	2721,26
859,71	2643,24
860,10	2697,47
860,48	2664,31
860,87	2657,29
861,25	2645,98
861,64	2716,58
862,02	2713,46
862,41	2814,10
862,79	2691,62
863,18	2704,88
863,56	2653,78
863,95	2779,39
864,33	2645,59
864,71	2665,87
865,10	2635,44
865,48	2624,91
865,87	2677,96
866,25	2659,63
866,64	2689,67
867,02	2680,30
867,40	2654,56
867,79	2626,47
868,17	2702,54
868,56	2688,50
868,94	2583,95
869,32	2661,19
869,71	2668,21
870,09	2736,09
870,47	2651,83
870,86	2700,59
871,24	2695,52
871,62	2649,49
872,01	2648,32
872,39	2659,24
872,77	2707,22
873,16	2699,81
873,54	2752,86
873,92	2682,64
874,31	2610,87
874,69	2639,34
875,07	2634,66
875,46	2651,83
875,84	2816,83
876,22	2664,31
876,60	2657,68
876,99	2667,82
877,37	2651,44
877,75	2676,01
878,14	2663,53
878,52	2619,06
878,90	2689,28
879,28	2639,73
879,66	2630,76
880,05	2642,46
880,43	2629,98
880,81	2663,14
881,19	2640,90
881,58	2640,12
881,96	2679,91
882,34	2751,30
882,72	2661,97
883,10	2684,98
883,49	2664,70
883,87	2684,98
884,25	2757,54
884,63	2715,02
885,01	2642,85
885,39	2696,30
885,78	2638,17
886,16	2653,78
886,54	2726,33
886,92	2721,65
887,30	2699,42
887,68	2640,51
888,06	2686,15
888,44	2690,84
888,83	2657,68
889,21	2737,26
889,59	2669,77
889,97	2704,88
890,35	2764,56
890,73	2633,49
891,11	2813,32
891,49	2628,03
891,87	2668,21
892,25	2631,93
892,63	2756,37
893,01	2624,13
893,39	2672,89
893,77	2651,44
894,16	2729,45
894,54	2600,34
894,92	2626,47
895,30	2665,87
895,68	2653,78
896,06	2745,45
896,44	2690,45
896,82	2624,52
897,20	2678,35
897,58	2629,59
897,96	2644,03
898,34	2694,35
898,72	2647,93
899,10	2731,80
899,47	2653,39
899,85	2686,15
900,23	2686,54
900,61	2694,35
900,99	2716,97
901,37	2628,81
901,75	2627,25
902,13	2771,58
902,51	2676,79
902,89	2636,22
903,27	2630,76
903,65	2695,13
904,03	2668,60
904,40	2738,82
904,78	2731,80
905,16	2680,30
905,54	2612,82
905,92	2637,00
906,30	2627,64
906,68	2638,95
907,06	2669,38
907,43	2680,30
907,81	2654,56
908,19	2629,20
908,57	2602,68
908,95	2656,12
909,33	2641,29
909,70	2661,97
910,08	2674,45
910,46	2687,72
910,84	2722,43
911,22	2692,79
911,59	2699,81
911,97	2655,34
912,35	2660,02
912,73	2645,98
913,11	2633,10
913,48	2635,44
913,86	2634,27
914,24	2645,20
914,62	2666,26
914,99	2687,33
915,37	2648,32
915,75	2720,87
916,13	2644,81
916,50	2798,11
916,88	2649,88
917,26	2699,42
917,63	2656,90
918,01	2725,94
918,39	2642,07
918,77	2663,92
919,14	2732,58
919,52	2709,95
919,90	2627,25
920,27	2639,34
920,65	2780,56
921,03	2659,63
921,40	2663,14
921,78	2670,94
922,16	2679,13
922,53	2598,38
922,91	2615,55
923,28	2589,41
923,66	2729,84
924,04	2665,87
924,41	2635,05
924,79	2637,78
925,17	2622,18
925,54	2622,18
925,92	2615,16
926,29	2656,90
926,67	2654,56
927,05	2652,61
927,42	2681,86
927,80	2730,62
928,17	2651,05
928,55	2702,93
928,92	2628,03
929,30	2635,05
929,67	2713,85
930,05	2697,47
930,43	2669,77
930,80	2711,12
931,18	2623,74
931,55	2692,40
931,93	2674,06
932,30	2866,77
932,68	2667,82
933,05	2676,79
933,43	2650,27
933,80	2649,10
934,18	2683,03
934,55	2675,62
934,92	2821,52
935,30	2650,27
935,67	2637,00
936,05	2747,40
936,42	2620,62
936,80	2616,72
937,17	2653,78
937,55	2628,81
937,92	2750,91
938,29	2646,37
938,67	2678,74
939,04	2665,48
939,42	2733,36
939,79	2694,74
940,16	2629,59
940,54	2720,09
940,91	2639,73
941,29	2604,63
941,66	2638,17
942,03	2657,29
942,41	2685,37
942,78	2623,35
943,15	2676,01
943,53	2607,36
943,90	2628,81
944,27	2634,66
944,65	2671,33
945,02	2626,08
945,39	2654,95
945,77	2703,71
946,14	2728,28
946,51	2665,48
946,89	2615,94
947,26	2653,78
947,63	2673,28
948,01	2674,84
948,38	2662,75
948,75	2694,74
949,12	2706,83
949,50	2729,06
949,87	2668,99
950,24	2629,59
950,61	2689,67
950,99	2683,03
951,36	2669,77
951,73	2615,16
952,10	2632,32
952,48	2622,18
952,85	2647,93
953,22	2688,89
953,59	2617,50
953,96	2792,65
954,34	2649,49
954,71	2688,11
955,08	2742,72
955,45	2665,48
955,82	2776,66
956,20	2649,88
956,57	2625,69
956,94	2619,45
957,31	2685,37
957,68	2639,34
958,05	2643,25
958,42	2659,63
958,80	2659,24
959,17	2674,45
959,54	2699,81
959,91	2668,60
960,28	2663,53
960,65	2687,72
961,02	2602,68
961,39	2739,60
961,76	2654,95
962,14	2694,35
962,51	2669,38
962,88	2633,49
963,25	2661,97
963,62	2635,83
963,99	2624,13
964,36	2651,83
964,73	2612,82
965,10	2681,86
965,47	2628,03
965,84	2702,15
966,21	2655,34
966,58	2748,57
966,95	2610,09
967,32	2644,81
967,69	2706,83
968,06	2732,97
968,43	2623,74
968,80	2728,67
969,17	2622,57
969,54	2670,94
969,91	2718,14
970,28	2679,52
970,65	2647,15
971,02	2689,67
971,39	2631,15
971,76	2686,15
972,13	2615,16
972,50	2706,44
972,87	2716,19
973,24	2638,56
973,61	2633,49
973,98	2652,22
974,34	2672,11
974,71	2736,48
975,08	2637,78
975,45	2657,68
975,82	2693,57
976,19	2674,06
976,56	2736,87
976,93	2655,73
977,30	2699,03
977,66	2613,99
978,03	2699,81
978,40	2599,56
978,77	2704,49
979,14	2645,20
979,51	2663,53
979,88	2658,07
980,24	2674,84
980,61	2667,82
980,98	2624,91
981,35	2707,22
981,72	2641,29
982,08	2686,15
982,45	2594,87
982,82	2700,20
983,19	2623,35
983,56	2741,94
983,92	2739,21
984,29	2640,51
984,66	2657,68
985,03	2679,52
985,39	2764,17
985,76	2721,65
986,13	2655,34
986,50	2659,24
986,86	2645,59
987,23	2612,04
987,60	2630,76
987,97	2718,53
988,33	2647,15
988,70	2632,71
989,07	2642,85
989,43	2658,46
989,80	2616,72
990,17	2629,59
990,53	2637,00
990,90	2713,07
991,27	2602,29
991,63	2647,54
992,00	2629,20
992,37	2689,28
992,73	2711,12
993,10	2660,02
993,47	2631,93
993,83	2699,42
994,20	2638,56
994,57	2719,31
994,93	2663,14
995,30	2753,64
995,66	2666,26
996,03	2661,58
996,40	2672,89
996,76	2614,77
997,13	2648,71
997,49	2613,99
997,86	2648,32
998,23	2668,21
998,59	2642,85
998,96	2613,99
999,32	2658,07
999,69	2655,34
1000,05	2640,51
1000,42	2675,62
1000,78	2610,09
1001,15	2639,73
1001,51	2647,54
1001,88	2627,64
1002,24	2668,60
1002,61	2667,43
1002,97	2733,36
1003,34	2698,25
1003,70	2639,34
1004,07	2744,67
1004,43	2646,76
1004,80	2657,29
1005,16	2716,97
1005,53	2782,51
1005,89	2627,64
1006,26	2605,02
1006,62	2616,72
1006,99	2722,82
1007,35	2729,84
1007,72	2680,69
1008,08	2634,66
1008,44	2681,08
1008,81	2618,28
1009,17	2627,64
1009,54	2665,87
1009,90	2604,63
1010,26	2663,53
1010,63	2671,72
1010,99	2671,72
1011,36	2668,99
1011,72	2681,47
1012,08	2699,81
1012,45	2637,00
1012,81	2668,21
1013,17	2734,14
1013,54	2618,28
1013,90	2637,78
1014,26	2624,91
1014,63	2631,93
1014,99	2657,29
1015,35	2646,37
1015,72	2686,94
1016,08	2622,18
1016,44	2686,54
1016,81	2649,49
1017,17	2640,90
1017,53	2649,88
1017,90	2765,34
1018,26	2681,47
1018,62	2628,81
1018,98	2622,18
1019,35	2651,05
1019,71	2638,17
1020,07	2720,48
1020,43	2669,77
1020,80	2649,49
1021,16	2629,98
1021,52	2689,28
1021,88	2641,68
1022,25	2658,07
1022,61	2709,17
1022,97	2668,99
1023,33	2660,80
1023,70	2682,64
1024,06	2614,38
1024,42	2680,30
1024,78	2651,83
1025,14	2644,03
1025,50	2619,06
1025,87	2713,85
1026,23	2653,39
1026,59	2625,30
1026,95	2642,07
1027,31	2611,26
1027,67	2663,53
1028,04	2660,41
1028,40	2688,50
1028,76	2639,73
1029,12	2605,80
1029,48	2670,55
1029,84	2630,76
1030,20	2648,71
1030,56	2640,51
1030,92	2740,77
1031,29	2648,32
1031,65	2617,50
1032,01	2654,95
1032,37	2630,76
1032,73	2718,53
1033,09	2693,96
1033,45	2721,65
1033,81	2621,79
1034,17	2647,15
1034,53	2608,92
1034,89	2648,71
1035,25	2648,71
1035,61	2648,71
>>>>>End Processed Spectral Data<<<<<
