SpectraSuite Data File
++++++++++++++++++++++++++++++++++++
Date: Wed Feb 24 12:55:36 EET 2016
User: OO Maya
Dark Spectrum Present: No
Reference Spectrum Present: No
Number of Sampled Component Spectra: 1
Spectrometers: FLMS00673
Integration Time (usec): 1000000 (FLMS00673)
Spectra Averaged: 6 (FLMS00673)
Boxcar Smoothing: 0 (FLMS00673)
Correct for Electrical Dark: No (FLMS00673)
Strobe/Lamp Enabled: No (FLMS00673)
Correct for Detector Non-linearity: No (FLMS00673)
Correct for Stray Light: No (FLMS00673)
Number of Pixels in Processed Spectrum: 2048
>>>>>Begin Processed Spectral Data<<<<<
188,41	2191,91
188,88	2191,91
189,35	2191,91
189,82	2127,55
190,28	2208,69
190,75	2235,21
191,22	2244,57
191,68	2179,04
192,15	2188,40
192,62	2350,29
193,08	2250,82
193,55	2340,54
194,02	2233,26
194,48	2294,51
194,95	2416,21
195,42	2326,88
195,88	2375,25
196,35	2402,17
196,82	2357,70
197,28	2453,66
197,75	2452,88
198,22	2412,70
198,68	2527,39
199,15	2507,10
199,61	2503,59
200,08	2591,36
200,55	2522,32
201,01	2546,89
201,48	2624,52
201,94	2590,97
202,41	2545,72
202,88	2610,09
203,34	2611,26
203,81	3185,47
204,27	2651,83
204,74	2683,03
205,20	2622,18
205,67	2653,39
206,13	2641,29
206,60	2665,09
207,06	2614,77
207,53	2690,45
208,00	2658,85
208,46	2710,73
208,93	2697,47
209,39	2660,02
209,86	2673,28
210,32	2735,31
210,78	2816,05
211,25	2669,38
211,71	2736,48
212,18	2613,60
212,64	2647,54
213,11	2738,82
213,57	2650,27
214,04	2697,86
214,50	2640,51
214,97	2941,27
215,43	2776,66
215,89	2644,81
216,36	2653,78
216,82	2607,36
217,29	2613,21
217,75	2627,64
218,22	2622,96
218,68	2704,10
219,14	2676,79
219,61	2701,37
220,07	2692,40
220,53	2650,66
221,00	2627,64
221,46	2618,28
221,93	2652,22
222,39	2652,22
222,85	2696,30
223,32	2614,38
223,78	2609,70
224,24	2823,08
224,71	2637,00
225,17	2632,32
225,63	2637,78
226,10	2624,91
226,56	2642,85
227,02	2640,90
227,48	2660,02
227,95	2599,16
228,41	2595,65
228,87	2634,27
229,34	2753,25
229,80	2608,53
230,26	2601,12
230,72	2692,01
231,19	2702,93
231,65	2629,98
232,11	2642,46
232,57	2607,75
233,04	2594,87
233,50	2611,65
233,96	2660,80
234,42	2635,05
234,88	2647,93
235,35	2654,95
235,81	2617,11
236,27	2642,07
236,73	2649,10
237,19	2644,81
237,66	2681,47
238,12	2599,56
238,58	2611,26
239,04	2649,49
239,50	2695,91
239,96	2674,84
240,43	2620,23
240,89	2704,49
241,35	2614,38
241,81	2652,61
242,27	2623,35
242,73	2625,30
243,19	2682,25
243,66	2639,73
244,12	2663,53
244,58	2712,29
245,04	2621,79
245,50	2610,09
245,96	2684,59
246,42	2626,47
246,88	2635,05
247,34	2799,67
247,80	2637,39
248,26	2817,61
248,72	2654,95
249,18	2730,63
249,65	2631,93
250,11	2672,50
250,57	2601,51
251,03	2652,61
251,49	2620,23
251,95	2631,15
252,41	2610,48
252,87	2663,53
253,33	2682,25
253,79	2682,25
254,25	2676,79
254,71	2709,17
255,17	2621,40
255,63	2649,10
256,09	2626,47
256,55	2654,17
257,01	2706,44
257,47	2724,77
257,92	2663,53
258,38	2750,91
258,84	2721,65
259,30	2663,92
259,76	2642,46
260,22	2707,61
260,68	2653,00
261,14	2633,49
261,60	2619,84
262,06	2668,21
262,52	2752,47
262,98	2674,06
263,43	2742,72
263,89	2661,97
264,35	2622,18
264,81	2638,17
265,27	2654,95
265,73	2639,73
266,19	2651,05
266,65	2662,75
267,10	2600,73
267,56	2624,52
268,02	2644,81
268,48	2612,04
268,94	2690,06
269,40	2639,73
269,85	2626,08
270,31	2644,81
270,77	2603,46
271,23	2680,30
271,69	2643,64
272,14	2757,54
272,60	2651,44
273,06	2619,45
273,52	2699,03
273,98	2640,90
274,43	2648,32
274,89	2654,17
275,35	2644,03
275,81	2767,68
276,26	2699,81
276,72	2581,61
277,18	2626,08
277,63	2818,00
278,09	2801,62
278,55	2639,73
279,01	2676,79
279,46	2653,78
279,92	2594,87
280,38	2607,36
280,83	2609,31
281,29	2646,76
281,75	2618,67
282,20	2667,04
282,66	2723,60
283,12	2629,98
283,57	2710,34
284,03	2649,10
284,49	2663,53
284,94	2709,95
285,40	2643,25
285,86	2720,48
286,31	2678,74
286,77	2661,97
287,23	2670,16
287,68	2662,36
288,14	2681,47
288,59	2654,56
289,05	2690,84
289,51	2746,62
289,96	2660,80
290,42	2703,32
290,87	2676,79
291,33	2621,01
291,78	2678,74
292,24	2644,81
292,70	2653,78
293,15	2711,51
293,61	2706,83
294,06	2788,75
294,52	2649,49
294,97	2642,85
295,43	2715,41
295,88	2655,73
296,34	2713,46
296,79	2683,03
297,25	2642,85
297,70	2626,08
298,16	2643,24
298,61	2729,84
299,07	2716,97
299,52	2708,39
299,98	2660,41
300,43	2917,87
300,89	2675,62
301,34	2675,23
301,80	2719,31
302,25	2750,91
302,71	2726,72
303,16	2695,52
303,61	2712,29
304,07	2764,95
304,52	2706,83
304,98	2668,99
305,43	2728,28
305,88	2718,14
306,34	2733,36
306,79	2794,99
307,25	2826,98
307,70	2740,77
308,15	2803,96
308,61	2812,15
309,06	2942,44
309,52	2936,20
309,97	2890,56
310,42	3004,08
310,88	3005,25
311,33	3075,46
311,78	3004,86
312,24	3075,07
312,69	3116,03
313,14	3178,84
313,60	3376,22
314,05	3463,21
314,50	3752,27
314,95	3963,70
315,41	4391,63
315,86	4576,92
316,31	4756,36
316,77	4911,61
317,22	4989,63
317,67	5011,48
318,12	5235,39
318,58	5272,45
319,03	5361,78
319,48	5373,48
319,93	5481,14
320,39	5397,28
320,84	5421,07
321,29	5501,04
321,74	5650,05
322,20	5742,50
322,65	5923,90
323,10	6054,97
323,55	6287,46
324,00	6488,75
324,46	6733,72
324,91	6935,79
325,36	7194,81
325,81	7408,58
326,26	7538,87
326,71	7525,21
327,17	7669,16
327,62	7621,56
328,07	7940,66
328,52	8263,26
328,97	8514,09
329,42	8677,15
329,87	9014,57
330,33	9262,67
330,78	9667,19
331,23	10028,03
331,68	10271,83
332,13	10637,73
332,58	10814,06
333,03	10679,08
333,48	10578,83
333,93	10377,16
334,38	10378,72
334,84	10547,23
335,29	10662,70
335,74	10716,53
336,19	10787,53
336,64	10974,38
337,09	11131,59
337,54	11370,32
337,99	11692,93
338,44	11910,60
338,89	12290,93
339,34	12698,97
339,79	12957,21
340,24	13231,44
340,69	13573,55
341,14	13802,14
341,59	14011,62
342,04	14255,42
342,49	14461,00
342,94	14659,56
343,39	14982,16
343,84	15009,08
344,29	15049,64
344,74	15181,88
345,19	15180,71
345,64	15216,60
346,09	15284,48
346,54	15338,70
346,99	15433,49
347,43	15583,29
347,88	15587,19
348,33	15923,83
348,78	15869,61
349,23	16089,23
349,68	16454,36
350,13	16390,38
350,58	16786,32
351,03	17043,00
351,48	17290,32
351,92	17531,39
352,37	17726,05
352,82	17861,80
353,27	18035,00
353,72	18157,49
354,17	18336,54
354,62	18461,37
355,06	18487,89
355,51	18626,76
355,96	18940,79
356,41	19166,26
356,86	19225,94
357,30	19443,61
357,75	19575,85
358,20	19897,28
358,65	20182,44
359,10	20551,85
359,54	20790,20
359,99	20968,47
360,44	21289,90
360,89	21459,20
361,34	21665,17
361,78	21765,42
362,23	21852,41
362,68	21953,05
363,13	22093,49
363,57	22158,63
364,02	22383,71
364,47	22456,27
364,91	22322,86
365,36	22442,62
365,81	22481,24
366,26	22661,46
366,70	22960,66
367,15	22804,23
367,60	22952,85
368,04	23118,64
368,49	23356,21
368,94	23464,65
369,38	23490,79
369,83	23561,78
370,28	23574,66
370,72	23665,55
371,17	23811,05
371,62	23825,48
372,06	23756,44
372,51	23818,07
372,96	23571,15
373,40	23468,16
373,85	23427,98
374,29	23444,37
374,74	23369,08
375,19	23159,99
375,63	22931,79
376,08	23015,27
376,52	22809,30
376,97	22772,63
377,42	22147,32
377,86	21812,62
378,31	21111,24
378,75	20350,96
379,20	19623,05
379,64	18685,67
380,09	17784,17
380,53	16935,34
380,98	15907,45
381,43	14810,52
381,87	13850,90
382,32	12824,58
382,76	12002,27
383,21	11121,06
383,65	10516,03
384,10	9916,46
384,54	9433,14
384,99	8777,40
385,43	8373,66
385,88	7992,54
386,32	7809,98
386,76	7398,43
387,21	7237,33
387,65	6990,79
388,10	6805,11
388,54	6572,61
388,99	6493,82
389,43	6409,95
389,88	6112,70
390,32	6018,30
390,76	5916,09
391,21	5682,43
391,65	5557,60
392,10	5682,43
392,54	5234,61
392,98	5076,62
393,43	4922,15
393,87	4658,06
394,32	4506,70
394,76	4323,36
395,20	4096,33
395,65	3965,26
396,09	3802,59
396,53	3629,39
396,98	3481,94
397,42	3357,89
397,86	3260,76
398,31	3148,80
398,75	3105,11
399,19	3014,22
399,64	2972,09
400,08	2928,40
400,52	2920,21
400,97	2899,53
401,41	2846,48
401,85	2830,10
402,30	2771,97
402,74	2788,75
403,18	2816,05
403,62	2765,73
404,07	2772,36
404,51	2744,28
404,95	2796,94
405,39	2694,74
405,84	2720,87
406,28	2773,14
406,72	2705,27
407,16	2811,76
407,61	2686,54
408,05	2712,68
408,49	2682,25
408,93	2732,97
409,37	2733,36
409,82	2716,19
410,26	2645,20
410,70	2742,33
411,14	2685,37
411,58	2749,74
412,02	2701,37
412,47	2725,94
412,91	2682,25
413,35	2743,11
413,79	2808,64
414,23	2736,09
414,67	2696,30
415,12	2762,22
415,56	2686,15
416,00	2731,80
416,44	2656,12
416,88	2717,75
417,32	2673,67
417,76	2652,22
418,20	2778,22
418,64	2641,29
419,08	2684,98
419,53	2677,96
419,97	2645,20
420,41	2673,28
420,85	2635,05
421,29	2752,47
421,73	2649,10
422,17	2678,35
422,61	2735,70
423,05	2649,10
423,49	2689,28
423,93	2670,55
424,37	2676,01
424,81	2798,11
425,25	2650,27
425,69	2706,83
426,13	2658,07
426,57	2706,83
427,01	2678,74
427,45	2640,90
427,89	2706,83
428,33	2672,50
428,77	2687,72
429,21	2663,92
429,65	2631,54
430,09	2686,94
430,53	2648,71
430,97	2706,83
431,41	2755,59
431,85	2738,04
432,29	2669,38
432,73	2672,11
433,16	2687,72
433,60	2631,15
434,04	2696,69
434,48	2765,34
434,92	2680,69
435,36	2687,33
435,80	2792,65
436,24	2679,52
436,68	2686,94
437,12	2689,28
437,55	2744,67
437,99	2705,66
438,43	2664,31
438,87	2697,08
439,31	2695,91
439,75	2689,28
440,18	2731,80
440,62	2679,52
441,06	2679,13
441,50	2684,98
441,94	2770,41
442,38	2625,30
442,81	2662,36
443,25	2625,30
443,69	2661,58
444,13	2684,20
444,57	2661,58
445,00	2720,48
445,44	2644,81
445,88	2733,36
446,32	2696,69
446,75	2709,95
447,19	2657,68
447,63	2789,92
448,07	2685,37
448,50	2686,94
448,94	2651,44
449,38	2665,87
449,82	2657,68
450,25	2677,57
450,69	2668,99
451,13	2829,71
451,56	2639,73
452,00	2731,41
452,44	2654,17
452,87	2641,68
453,31	2661,58
453,75	2646,37
454,18	2674,84
454,62	2678,74
455,06	2688,11
455,49	2677,57
455,93	2636,61
456,37	2675,62
456,80	2637,00
457,24	2642,85
457,68	2740,38
458,11	2711,51
458,55	2716,97
458,98	2678,35
459,42	2729,45
459,86	2690,45
460,29	2678,35
460,73	2773,14
461,16	2638,95
461,60	2743,89
462,04	2747,01
462,47	2672,50
462,91	2686,54
463,34	2642,46
463,78	2763,78
464,21	2672,89
464,65	2710,73
465,08	2667,04
465,52	2662,75
465,96	2735,31
466,39	2683,81
466,83	2748,57
467,26	2737,65
467,70	2701,37
468,13	2649,49
468,57	2660,02
469,00	2765,73
469,44	2676,01
469,87	2678,35
470,31	2666,65
470,74	2697,86
471,17	2726,72
471,61	2651,44
472,04	2731,41
472,48	2752,86
472,91	2694,74
473,35	2672,11
473,78	2731,80
474,22	2681,86
474,65	2728,28
475,08	2722,82
475,52	2685,76
475,95	2714,63
476,39	2654,17
476,82	2684,59
477,25	2679,52
477,69	2670,55
478,12	2746,62
478,56	2829,32
478,99	2736,09
479,42	2728,67
479,86	2702,54
480,29	2657,29
480,72	2651,05
481,16	2666,26
481,59	2718,92
482,02	2664,70
482,46	2763,00
482,89	2711,90
483,32	2728,28
483,76	2667,82
484,19	2697,86
484,62	2643,64
485,06	2785,24
485,49	2643,64
485,92	2736,87
486,35	2746,62
486,79	2683,03
487,22	2873,40
487,65	2927,62
488,09	2701,76
488,52	2658,07
488,95	2686,94
489,38	2769,24
489,82	2789,92
490,25	2715,41
490,68	2692,01
491,11	2694,74
491,54	2645,20
491,98	2648,71
492,41	2712,68
492,84	2714,63
493,27	2685,37
493,70	2778,22
494,14	2755,98
494,57	2729,45
495,00	2673,28
495,43	2751,30
495,86	2710,73
496,30	2795,77
496,73	2747,01
497,16	2702,54
497,59	2700,20
498,02	2702,54
498,45	2638,17
498,88	2755,98
499,32	2683,03
499,75	2702,93
500,18	2757,15
500,61	2704,88
501,04	2837,51
501,47	2693,57
501,90	2693,96
502,33	2679,13
502,76	2665,09
503,19	2775,88
503,62	2722,82
504,06	2699,03
504,49	2705,27
504,92	2693,18
505,35	2707,22
505,78	2732,97
506,21	2700,59
506,64	2713,07
507,07	2729,45
507,50	2722,82
507,93	2656,12
508,36	2674,84
508,79	2689,28
509,22	2715,02
509,65	2752,86
510,08	2757,93
510,51	2727,89
510,94	2702,93
511,37	2768,85
511,80	2704,88
512,23	2679,52
512,66	2703,32
513,09	2748,57
513,52	2734,14
513,95	2738,04
514,38	2793,04
514,81	2766,12
515,23	2720,09
515,66	2813,71
516,09	2794,21
516,52	2727,11
516,95	2684,98
517,38	2734,53
517,81	2690,06
518,24	2759,49
518,67	2813,71
519,10	2683,81
519,53	2720,48
519,95	2761,44
520,38	2715,02
520,81	2708,78
521,24	2661,58
521,67	2700,98
522,10	2669,77
522,53	2679,91
522,95	2716,58
523,38	2780,95
523,81	2702,54
524,24	2710,34
524,67	2742,33
525,09	2713,85
525,52	2708,00
525,95	2696,30
526,38	2688,50
526,81	2674,84
527,23	2764,56
527,66	2738,04
528,09	2744,28
528,52	2729,84
528,95	2680,69
529,37	2758,71
529,80	2704,88
530,23	2713,46
530,66	2690,06
531,08	2694,74
531,51	2690,06
531,94	2716,19
532,37	2691,62
532,79	2681,08
533,22	2684,59
533,65	2733,75
534,07	2723,99
534,50	2700,59
534,93	2803,18
535,35	2685,37
535,78	2699,03
536,21	2711,51
536,63	2794,21
537,06	2688,89
537,49	2771,19
537,91	2693,57
538,34	2663,92
538,77	2752,08
539,19	2693,96
539,62	2676,79
540,05	2711,12
540,47	2705,66
540,90	2695,52
541,33	2721,65
541,75	2692,40
542,18	2735,70
542,60	2767,68
543,03	2711,12
543,45	2637,00
543,88	2731,80
544,31	2762,61
544,73	2696,69
545,16	2723,60
545,58	2659,24
546,01	2726,33
546,43	2717,36
546,86	2670,94
547,29	2650,27
547,71	2739,21
548,14	2696,69
548,56	2738,04
548,99	2670,16
549,41	2750,52
549,84	2679,13
550,26	2821,91
550,69	2707,61
551,11	2683,03
551,54	2724,77
551,96	2671,33
552,39	2686,94
552,81	2712,29
553,24	2750,13
553,66	2706,44
554,08	2674,84
554,51	2727,89
554,93	2761,44
555,36	2675,23
555,78	2690,06
556,21	2668,99
556,63	2684,20
557,06	2718,14
557,48	2637,00
557,90	2673,28
558,33	2774,71
558,75	2674,45
559,18	2816,83
559,60	2805,13
560,02	2679,91
560,45	2681,47
560,87	2743,50
561,29	2720,87
561,72	2653,39
562,14	2672,89
562,57	2724,38
562,99	2742,33
563,41	2682,25
563,84	2731,80
564,26	2681,86
564,68	2677,18
565,11	2773,14
565,53	2660,80
565,95	2645,20
566,37	2671,33
566,80	2702,54
567,22	2641,68
567,64	2666,26
568,07	2706,44
568,49	2949,08
568,91	2711,12
569,33	2799,28
569,76	2650,66
570,18	2734,53
570,60	2726,33
571,03	2767,29
571,45	2738,04
571,87	2739,60
572,29	2727,50
572,71	2760,27
573,14	2732,58
573,56	2689,67
573,98	2709,95
574,40	2786,80
574,83	2693,96
575,25	2693,96
575,67	2679,52
576,09	2674,84
576,51	2691,23
576,93	2686,54
577,36	2741,55
577,78	2718,92
578,20	2686,54
578,62	2693,18
579,04	2679,52
579,46	2700,98
579,89	2730,23
580,31	2717,75
580,73	2727,11
581,15	2688,50
581,57	2672,11
581,99	2689,67
582,41	2745,45
582,83	2797,33
583,25	2662,36
583,68	2766,12
584,10	2700,59
584,52	2716,19
584,94	2700,59
585,36	2684,20
585,78	2695,13
586,20	2676,79
586,62	2700,59
587,04	2699,81
587,46	2715,80
587,88	2682,25
588,30	2685,76
588,72	2750,52
589,14	2683,42
589,56	2661,19
589,98	2709,17
590,40	2759,10
590,82	2693,57
591,24	2679,13
591,66	2684,59
592,08	2685,76
592,50	2750,13
592,92	2701,37
593,34	2704,10
593,76	2696,30
594,18	2774,32
594,60	2721,26
595,02	2775,88
595,44	2738,04
595,86	2824,25
596,28	2779,00
596,70	2710,34
597,12	2663,14
597,54	2709,56
597,96	2700,59
598,37	2713,07
598,79	2705,27
599,21	2767,29
599,63	2767,29
600,05	2689,67
600,47	2780,95
600,89	2677,96
601,31	2720,48
601,73	2687,72
602,14	2848,04
602,56	2784,07
602,98	2869,50
603,40	2794,21
603,82	2708,00
604,24	2695,52
604,65	2730,23
605,07	2756,37
605,49	2708,00
605,91	2743,50
606,33	2769,24
606,75	2714,24
607,16	2722,43
607,58	2730,62
608,00	2692,79
608,42	2706,83
608,83	2708,39
609,25	2744,67
609,67	2788,75
610,09	2705,27
610,51	2685,76
610,92	2688,11
611,34	2749,35
611,76	2732,58
612,17	2706,44
612,59	2725,16
613,01	2676,40
613,43	2674,45
613,84	2721,26
614,26	2693,18
614,68	2739,99
615,10	2723,60
615,51	2734,14
615,93	2751,69
616,35	2771,97
616,76	2765,34
617,18	2701,37
617,60	2708,00
618,01	2702,15
618,43	2721,65
618,85	2679,91
619,26	2704,10
619,68	2750,52
620,09	2725,16
620,51	2707,61
620,93	2699,42
621,34	2709,17
621,76	2719,70
622,18	2723,60
622,59	2740,77
623,01	2781,34
623,42	2784,07
623,84	2762,61
624,26	2690,06
624,67	2741,94
625,09	2836,73
625,50	2726,72
625,92	2705,66
626,33	2736,48
626,75	2754,03
627,17	2797,72
627,58	2813,32
628,00	2715,02
628,41	2703,71
628,83	2720,48
629,24	2712,68
629,66	2771,58
630,07	2718,53
630,49	2733,36
630,90	2804,35
631,32	2797,72
631,73	2712,29
632,15	2761,05
632,56	2663,92
632,98	2703,32
633,39	2723,60
633,81	2683,81
634,22	2708,00
634,63	2690,84
635,05	2672,50
635,46	2711,51
635,88	2762,61
636,29	2668,99
636,71	2727,11
637,12	2809,42
637,54	2736,48
637,95	2736,87
638,36	2774,32
638,78	2684,59
639,19	2699,03
639,61	2690,45
640,02	2683,03
640,43	2709,95
640,85	2738,43
641,26	2702,15
641,67	2714,63
642,09	2867,55
642,50	2711,90
642,91	2702,15
643,33	2692,40
643,74	2742,33
644,15	2715,41
644,57	2784,85
644,98	2751,69
645,39	2695,13
645,81	2695,52
646,22	2721,26
646,63	2753,64
647,05	2720,09
647,46	2730,62
647,87	2718,53
648,29	2790,31
648,70	2718,53
649,11	2746,23
649,52	2694,74
649,94	2773,92
650,35	2723,99
650,76	2654,95
651,17	2748,18
651,59	2784,85
652,00	2736,87
652,41	2752,86
652,82	2744,67
653,24	2695,52
653,65	2763,00
654,06	2759,49
654,47	2718,92
654,88	2777,83
655,30	2754,81
655,71	2708,00
656,12	2695,91
656,53	2700,20
656,94	2690,84
657,35	2778,22
657,77	2740,38
658,18	2653,00
658,59	2845,70
659,00	2710,34
659,41	2760,66
659,82	2741,55
660,23	2717,36
660,65	2769,63
661,06	2823,47
661,47	2753,25
661,88	2709,17
662,29	2708,00
662,70	2774,32
663,11	2710,34
663,52	2693,18
663,93	2717,36
664,34	2769,63
664,76	2736,87
665,17	2716,58
665,58	2714,24
665,99	2739,99
666,40	2684,20
666,81	2738,04
667,22	2755,98
667,63	2787,97
668,04	2746,62
668,45	2775,10
668,86	2691,23
669,27	2679,91
669,68	2825,42
670,09	2676,01
670,50	2715,80
670,91	2653,78
671,32	2775,10
671,73	2732,19
672,14	2759,88
672,55	2690,84
672,96	2709,56
673,37	2705,66
673,78	2732,97
674,19	2753,25
674,60	2798,50
675,01	2736,09
675,42	2759,88
675,82	2762,22
676,23	2739,60
676,64	2877,30
677,05	2768,85
677,46	2824,64
677,87	2773,53
678,28	2796,55
678,69	2706,05
679,10	2769,24
679,51	2796,16
679,91	2772,75
680,32	2700,98
680,73	2715,80
681,14	2700,98
681,55	2690,84
681,96	2784,46
682,37	2736,48
682,78	2719,70
683,18	2660,41
683,59	2692,40
684,00	2854,67
684,41	2741,94
684,82	2713,85
685,22	2809,03
685,63	2750,52
686,04	2746,62
686,45	2700,20
686,86	2768,85
687,26	2700,59
687,67	2752,47
688,08	2709,17
688,49	2709,95
688,90	2783,29
689,30	2826,98
689,71	2723,60
690,12	2754,81
690,53	2744,67
690,93	2742,33
691,34	2692,01
691,75	2718,14
692,15	2705,66
692,56	2809,03
692,97	2734,53
693,38	2741,16
693,78	2686,54
694,19	2712,29
694,60	2740,77
695,00	2726,72
695,41	2663,14
695,82	2711,51
696,22	2752,47
696,63	2764,17
697,04	2800,45
697,44	2753,25
697,85	2768,46
698,26	2777,44
698,66	2837,12
699,07	2738,82
699,48	2734,14
699,88	2754,03
700,29	2844,14
700,69	2762,61
701,10	2821,13
701,51	2730,62
701,91	2779,00
702,32	2790,31
702,72	2848,43
703,13	2831,66
703,54	2767,68
703,94	2817,61
704,35	2788,36
704,75	2775,49
705,16	2809,42
705,56	2825,42
705,97	2789,14
706,37	2798,50
706,78	2832,44
707,18	2815,27
707,59	2808,25
707,99	2786,80
708,40	2782,51
708,81	2838,68
709,21	2921,77
709,62	2845,70
710,02	2828,93
710,42	2841,02
710,83	2869,50
711,23	2860,52
711,64	2871,06
712,04	2901,09
712,45	2899,92
712,85	2869,11
713,26	2974,43
713,66	2880,42
714,07	2941,66
714,47	2903,43
714,87	2865,99
715,28	2913,97
715,68	2894,46
716,09	2911,24
716,49	2943,22
716,90	2894,07
717,30	2911,63
717,70	2957,66
718,11	2942,05
718,51	2995,89
718,91	2945,56
719,32	3007,20
719,72	2978,33
720,13	3019,68
720,53	3000,18
720,93	3026,70
721,34	2974,43
721,74	3020,46
722,14	3089,51
722,55	3059,08
722,95	3064,54
723,35	3050,50
723,76	3118,76
724,16	3101,60
724,56	3032,94
724,97	3073,90
725,37	3103,16
725,77	3089,12
726,17	3082,88
726,58	3109,40
726,98	3132,81
727,38	3155,04
727,78	3138,27
728,19	3136,71
728,59	3211,61
728,99	3183,13
729,39	3188,59
729,80	3150,36
730,20	3137,88
730,60	3288,45
731,00	3204,58
731,41	3235,79
731,81	3233,45
732,21	3261,15
732,61	3345,80
733,01	3264,66
733,42	3333,31
733,82	3316,93
734,22	3325,90
734,62	3359,45
735,02	3422,25
735,42	3258,03
735,83	3329,80
736,23	3330,97
736,63	3370,37
737,03	3443,71
737,43	3442,54
737,83	3348,92
738,23	3360,62
738,64	3379,34
739,04	3318,88
739,44	3318,88
739,84	3334,09
740,24	3307,57
740,64	3306,79
741,04	3359,84
741,44	3274,41
741,84	3268,17
742,24	3284,16
742,64	3312,64
743,05	3293,52
743,45	3275,58
743,85	3266,61
744,25	3282,99
744,65	3207,31
745,05	3287,67
745,45	3283,77
745,85	3366,47
746,25	3345,41
746,65	3195,22
747,05	3240,47
747,45	3296,25
747,85	3231,11
748,25	3195,22
748,65	3183,91
749,05	3155,43
749,45	3193,66
749,85	3157,38
750,25	3137,49
750,65	3175,72
751,05	3161,28
751,45	3109,01
751,85	3178,06
752,25	3145,68
752,64	3171,43
753,04	3141,39
753,44	3180,40
753,84	3129,30
754,24	3115,25
754,64	3068,44
755,04	3215,90
755,44	3058,69
755,84	3096,92
756,24	3020,85
756,64	3011,49
757,03	3164,40
757,43	3073,12
757,83	3002,13
758,23	2995,89
758,63	2997,45
759,03	3158,94
759,43	3009,15
759,82	3010,71
760,22	2965,85
760,62	3006,03
761,02	3009,93
761,42	3005,25
761,82	3029,43
762,21	3012,66
762,61	2958,44
763,01	3067,27
763,41	2998,62
763,81	2983,40
764,20	2937,76
764,60	3057,91
765,00	2945,17
765,40	3022,02
765,79	2933,86
766,19	2943,61
766,59	2930,35
766,99	2929,57
767,38	2928,79
767,78	2885,88
768,18	2881,98
768,58	2924,89
768,97	2930,74
769,37	2957,66
769,77	2892,12
770,16	2864,43
770,56	2938,93
770,96	2847,26
771,36	2888,22
771,75	2922,94
772,15	2966,24
772,55	2963,90
772,94	2884,32
773,34	2871,06
773,74	2863,26
774,13	2890,56
774,53	2876,52
774,93	2960,00
775,32	2933,86
775,72	2876,91
776,11	2896,80
776,51	2864,04
776,91	2885,88
777,30	2883,54
777,70	2873,79
778,10	2935,03
778,49	2866,38
778,89	2890,56
779,28	2928,79
779,68	2883,15
780,07	2898,75
780,47	2888,61
780,87	2869,89
781,26	2918,65
781,66	2901,87
782,05	2887,44
782,45	2889,00
782,84	2913,97
783,24	2877,30
783,63	2959,22
784,03	2881,59
784,42	2865,99
784,82	2984,96
785,21	2958,83
785,61	2980,67
786,00	2885,10
786,40	2858,18
786,79	2852,33
787,19	2891,34
787,58	2936,20
787,98	2984,18
788,37	2887,05
788,77	2899,53
789,16	2946,34
789,56	2914,75
789,95	2912,80
790,35	3065,32
790,74	3035,28
791,13	3116,03
791,53	2922,94
791,92	2942,05
792,32	2956,88
792,71	2873,01
793,10	2920,60
793,50	2963,12
793,89	2918,65
794,29	2940,49
794,68	2966,24
795,07	2955,32
795,47	2990,03
795,86	2915,53
796,26	2924,89
796,65	2966,24
797,04	2926,84
797,44	2959,22
797,83	2913,58
798,22	2972,09
798,62	3080,93
799,01	3000,96
799,40	3019,68
799,80	3104,72
800,19	2983,79
800,58	2998,62
800,97	3074,68
801,37	3062,98
801,76	3084,44
802,15	3039,58
802,55	3048,55
802,94	3038,41
803,33	4852,71
803,72	3250,22
804,12	3111,74
804,51	3154,26
804,90	3141,00
805,29	3091,46
805,69	3107,84
806,08	3114,47
806,47	3101,60
806,86	3209,65
807,26	3127,74
807,65	3112,91
808,04	3181,57
808,43	3246,71
808,82	3202,63
809,22	3204,97
809,61	3179,62
810,00	3226,43
810,39	3240,08
810,78	3193,27
811,17	3254,51
811,57	3221,36
811,96	3144,90
812,35	3174,94
812,74	3217,46
813,13	3162,84
813,52	3118,37
813,91	3118,37
814,30	3129,69
814,70	3250,22
815,09	3175,33
815,48	3092,24
815,87	3174,55
816,26	3112,52
816,65	3262,71
817,04	3090,68
817,43	3098,87
817,82	3041,14
818,21	3157,38
818,60	3016,56
819,00	3060,64
819,39	3031,38
819,78	2973,26
820,17	2979,50
820,56	2957,66
820,95	2964,68
821,34	2984,18
821,73	2924,11
822,12	2928,40
822,51	3002,13
822,90	3025,14
823,29	2892,12
823,68	2986,52
824,07	2895,24
824,46	2960,78
824,85	2889,39
825,24	2958,83
825,63	2933,86
826,02	2970,53
826,41	2883,54
826,80	2873,01
827,18	2857,40
827,57	2863,26
827,96	2943,22
828,35	2897,97
828,74	2790,70
829,13	2876,91
829,52	2948,29
829,91	2904,60
830,30	2828,93
830,69	2817,61
831,08	2858,57
831,47	2851,94
831,85	2951,03
832,24	2813,32
832,63	2868,33
833,02	2821,91
833,41	2888,61
833,80	2900,31
834,19	2887,83
834,57	2813,32
834,96	2815,27
835,35	2839,07
835,74	2870,28
836,13	2860,13
836,52	2913,97
836,90	2794,60
837,29	2908,51
837,68	2813,32
838,07	2816,83
838,46	2829,71
838,84	2840,24
839,23	2869,11
839,62	2931,91
840,01	2836,34
840,40	2809,42
840,78	2855,45
841,17	2881,98
841,56	2812,15
841,95	2912,02
842,33	2794,60
842,72	2816,05
843,11	2766,90
843,50	2781,34
843,88	2802,01
844,27	2843,75
844,66	2800,45
845,04	2867,94
845,43	2797,72
845,82	2821,91
846,20	2760,27
846,59	2792,65
846,98	2789,92
847,37	2897,19
847,75	2827,37
848,14	2947,51
848,53	2919,43
848,91	2816,83
849,30	2844,53
849,68	2799,67
850,07	2837,12
850,46	2785,63
850,84	2839,85
851,23	2837,51
851,62	2789,92
852,00	2782,90
852,39	2736,87
852,77	2781,73
853,16	2816,83
853,55	2840,24
853,93	2777,44
854,32	2752,86
854,70	2805,52
855,09	2766,90
855,47	2795,38
855,86	2802,79
856,25	2791,87
856,63	2881,20
857,02	2795,77
857,40	2876,91
857,79	2799,28
858,17	2820,74
858,56	2842,19
858,94	2821,52
859,33	2814,49
859,71	2784,85
860,10	2827,76
860,48	2819,57
860,87	2805,52
861,25	2825,42
861,64	2855,84
862,02	2809,81
862,41	2944,78
862,79	2825,03
863,18	2859,74
863,56	2871,45
863,95	2927,62
864,33	2773,92
864,71	2838,29
865,10	2775,10
865,48	2771,97
865,87	2814,88
866,25	2832,83
866,64	2841,41
867,02	2861,30
867,40	2806,69
867,79	2807,08
868,17	2820,74
868,56	2826,59
868,94	2756,76
869,32	2791,09
869,71	2854,67
870,09	2956,49
870,47	2805,13
870,86	2846,87
871,24	2850,38
871,62	2801,62
872,01	2795,38
872,39	2809,03
872,77	2854,67
873,16	2867,55
873,54	2954,93
873,92	2811,37
874,31	2797,72
874,69	2813,32
875,07	2817,22
875,46	2837,90
875,84	2978,33
876,22	2832,83
876,60	2783,68
876,99	2846,48
877,37	2830,88
877,75	2859,35
878,14	2835,17
878,52	2770,41
878,90	2829,71
879,28	2797,72
879,66	2786,80
880,05	2799,67
880,43	2774,32
880,81	2808,64
881,19	2761,05
881,58	2777,05
881,96	2814,88
882,34	2886,27
882,72	2791,87
883,10	2805,13
883,49	2781,73
883,87	2763,00
884,25	2895,63
884,63	2842,97
885,01	2758,32
885,39	2780,56
885,78	2773,14
886,16	2754,03
886,54	2872,23
886,92	2793,43
887,30	2833,61
887,68	2750,13
888,06	2787,58
888,44	2792,65
888,83	2757,15
889,21	2804,74
889,59	2770,02
889,97	2763,78
890,35	2895,24
890,73	2766,90
891,11	2895,24
891,49	2729,45
891,87	2722,82
892,25	2715,80
892,63	2870,28
893,01	2741,16
893,39	2770,41
893,77	2717,75
894,16	2818,40
894,54	2713,07
894,92	2727,11
895,30	2761,83
895,68	2768,07
896,06	2861,30
896,44	2772,36
896,82	2725,55
897,20	2733,75
897,58	2737,65
897,96	2726,72
898,34	2795,77
898,72	2705,66
899,10	2830,49
899,47	2703,71
899,85	2782,51
900,23	2785,63
900,61	2783,68
900,99	2794,99
901,37	2727,89
901,75	2696,30
902,13	2813,71
902,51	2766,51
902,89	2695,91
903,27	2748,57
903,65	2764,56
904,03	2718,53
904,40	2787,58
904,78	2835,56
905,16	2748,18
905,54	2712,29
905,92	2695,91
906,30	2711,51
906,68	2773,14
907,06	2729,06
907,43	2751,69
907,81	2696,30
908,19	2702,93
908,57	2689,67
908,95	2719,31
909,33	2714,24
909,70	2696,30
910,08	2752,47
910,46	2756,37
910,84	2799,67
911,22	2747,40
911,59	2766,90
911,97	2730,23
912,35	2718,14
912,73	2718,14
913,11	2702,54
913,48	2687,72
913,86	2682,64
914,24	2732,97
914,62	2732,97
914,99	2728,28
915,37	2690,45
915,75	2739,60
916,13	2692,79
916,50	2859,74
916,88	2721,65
917,26	2745,84
917,63	2688,11
918,01	2769,24
918,39	2712,29
918,77	2686,94
919,14	2791,09
919,52	2744,28
919,90	2659,24
920,27	2708,78
920,65	2774,71
921,03	2726,33
921,40	2706,05
921,78	2706,44
922,16	2724,77
922,53	2688,50
922,91	2670,55
923,28	2656,90
923,66	2773,14
924,04	2745,06
924,41	2683,42
924,79	2662,75
925,17	2732,19
925,54	2668,99
925,92	2673,67
926,29	2637,00
926,67	2664,31
927,05	2709,17
927,42	2695,52
927,80	2753,25
928,17	2687,33
928,55	2738,82
928,92	2668,99
929,30	2678,35
929,67	2743,50
930,05	2727,11
930,43	2679,13
930,80	2762,22
931,18	2658,85
931,55	2690,84
931,93	2707,61
932,30	2898,75
932,68	2679,91
933,05	2716,97
933,43	2660,80
933,80	2674,84
934,18	2709,56
934,55	2675,23
934,92	2852,33
935,30	2698,25
935,67	2641,68
936,05	2780,56
936,42	2652,61
936,80	2648,32
937,17	2631,54
937,55	2646,76
937,92	2772,75
938,29	2664,70
938,67	2726,72
939,04	2714,24
939,42	2752,86
939,79	2703,32
940,16	2660,41
940,54	2784,85
940,91	2651,83
941,29	2654,17
941,66	2712,68
942,03	2677,96
942,41	2723,99
942,78	2658,46
943,15	2738,82
943,53	2643,64
943,90	2644,03
944,27	2616,72
944,65	2657,68
945,02	2645,20
945,39	2652,61
945,77	2741,94
946,14	2713,07
946,51	2679,52
946,89	2665,48
947,26	2645,59
947,63	2673,67
948,01	2679,91
948,38	2705,66
948,75	2761,05
949,12	2704,88
949,50	2777,44
949,87	2648,32
950,24	2692,79
950,61	2700,59
950,99	2716,19
951,36	2704,10
951,73	2629,20
952,10	2642,07
952,48	2633,49
952,85	2690,84
953,22	2722,43
953,59	2655,73
953,96	2825,81
954,34	2722,82
954,71	2682,64
955,08	2718,14
955,45	2674,06
955,82	2781,73
956,20	2718,53
956,57	2631,54
956,94	2644,81
957,31	2672,89
957,68	2679,91
958,05	2684,98
958,42	2708,39
958,80	2668,60
959,17	2680,69
959,54	2734,14
959,91	2680,30
960,28	2689,28
960,65	2700,59
961,02	2700,20
961,39	2736,09
961,76	2688,11
962,14	2718,92
962,51	2677,96
962,88	2669,38
963,25	2654,95
963,62	2665,48
963,99	2660,41
964,36	2677,18
964,73	2666,26
965,10	2707,61
965,47	2631,93
965,84	2698,64
966,21	2682,64
966,58	2741,16
966,95	2635,83
967,32	2690,45
967,69	2716,58
968,06	2728,28
968,43	2634,66
968,80	2769,63
969,17	2643,64
969,54	2650,27
969,91	2736,09
970,28	2701,76
970,65	2638,17
971,02	2661,97
971,39	2632,32
971,76	2699,42
972,13	2636,61
972,50	2678,74
972,87	2723,60
973,24	2637,39
973,61	2636,22
973,98	2701,37
974,34	2694,74
974,71	2782,90
975,08	2653,00
975,45	2664,31
975,82	2718,53
976,19	2713,85
976,56	2702,15
976,93	2670,55
977,30	2669,38
977,66	2614,38
978,03	2722,82
978,40	2644,42
978,77	2708,39
979,14	2637,00
979,51	2643,25
979,88	2666,26
980,24	2671,72
980,61	2682,64
980,98	2640,90
981,35	2723,60
981,72	2671,72
982,08	2708,39
982,45	2639,73
982,82	2718,14
983,19	2651,05
983,56	2736,09
983,92	2715,41
984,29	2665,87
984,66	2645,98
985,03	2680,30
985,39	2792,26
985,76	2746,62
986,13	2678,35
986,50	2680,69
986,86	2661,58
987,23	2626,86
987,60	2636,61
987,97	2757,93
988,33	2669,38
988,70	2638,95
989,07	2670,94
989,43	2635,05
989,80	2620,62
990,17	2620,23
990,53	2631,93
990,90	2735,70
991,27	2659,24
991,63	2645,20
992,00	2624,91
992,37	2700,98
992,73	2717,75
993,10	2665,87
993,47	2636,22
993,83	2715,02
994,20	2661,58
994,57	2705,66
994,93	2642,46
995,30	2754,03
995,66	2667,04
996,03	2654,56
996,40	2677,18
996,76	2639,34
997,13	2662,36
997,49	2638,56
997,86	2606,19
998,23	2714,24
998,59	2640,12
998,96	2639,73
999,32	2618,28
999,69	2664,31
1000,05	2642,46
1000,42	2631,15
1000,78	2621,40
1001,15	2659,24
1001,51	2622,96
1001,88	2631,93
1002,24	2668,60
1002,61	2653,39
1002,97	2743,11
1003,34	2670,94
1003,70	2627,25
1004,07	2740,38
1004,43	2677,18
1004,80	2656,12
1005,16	2731,41
1005,53	2760,66
1005,89	2628,03
1006,26	2635,05
1006,62	2651,05
1006,99	2759,49
1007,35	2729,84
1007,72	2668,21
1008,08	2655,34
1008,44	2668,60
1008,81	2631,54
1009,17	2638,17
1009,54	2673,28
1009,90	2609,31
1010,26	2683,03
1010,63	2665,87
1010,99	2678,74
1011,36	2634,66
1011,72	2670,16
1012,08	2691,23
1012,45	2656,51
1012,81	2667,43
1013,17	2716,19
1013,54	2598,77
1013,90	2648,71
1014,26	2603,85
1014,63	2603,07
1014,99	2677,18
1015,35	2626,47
1015,72	2711,12
1016,08	2622,57
1016,44	2699,81
1016,81	2639,34
1017,17	2656,51
1017,53	2633,10
1017,90	2805,91
1018,26	2631,15
1018,62	2674,06
1018,98	2640,90
1019,35	2661,19
1019,71	2642,85
1020,07	2715,80
1020,43	2681,47
1020,80	2626,47
1021,16	2636,22
1021,52	2667,43
1021,88	2677,57
1022,25	2673,67
1022,61	2681,86
1022,97	2620,23
1023,33	2645,59
1023,70	2656,12
1024,06	2612,82
1024,42	2688,50
1024,78	2631,54
1025,14	2677,18
1025,50	2630,37
1025,87	2715,41
1026,23	2677,96
1026,59	2617,11
1026,95	2624,13
1027,31	2625,69
1027,67	2661,19
1028,04	2615,94
1028,40	2644,03
1028,76	2674,45
1029,12	2604,24
1029,48	2654,95
1029,84	2628,81
1030,20	2660,41
1030,56	2645,20
1030,92	2720,87
1031,29	2660,41
1031,65	2644,03
1032,01	2629,59
1032,37	2624,52
1032,73	2719,31
1033,09	2702,93
1033,45	2723,21
1033,81	2617,89
1034,17	2675,23
1034,53	2606,58
1034,89	2654,95
1035,25	2654,95
1035,61	2654,95
>>>>>End Processed Spectral Data<<<<<
