SpectraSuite Data File
++++++++++++++++++++++++++++++++++++
Date: Wed Feb 24 12:58:36 EET 2016
User: OO Maya
Dark Spectrum Present: No
Reference Spectrum Present: No
Number of Sampled Component Spectra: 1
Spectrometers: FLMS00673
Integration Time (usec): 1000000 (FLMS00673)
Spectra Averaged: 6 (FLMS00673)
Boxcar Smoothing: 0 (FLMS00673)
Correct for Electrical Dark: No (FLMS00673)
Strobe/Lamp Enabled: No (FLMS00673)
Correct for Detector Non-linearity: No (FLMS00673)
Correct for Stray Light: No (FLMS00673)
Number of Pixels in Processed Spectrum: 2048
>>>>>Begin Processed Spectral Data<<<<<
188,41	2173,58
188,88	2173,58
189,35	2173,58
189,82	2130,28
190,28	2214,54
190,75	2205,95
191,22	2255,89
191,68	2173,97
192,15	2215,71
192,62	2319,47
193,08	2266,81
193,55	2288,65
194,02	2213,76
194,48	2305,43
194,95	2359,65
195,42	2344,05
195,88	2380,71
196,35	2387,35
196,82	2376,42
197,28	2460,68
197,75	2438,06
198,22	2407,63
198,68	2548,45
199,15	2484,09
199,61	2470,05
200,08	2589,80
200,55	2518,42
201,01	2544,94
201,48	2610,48
201,94	2581,61
202,41	2552,35
202,88	2591,36
203,34	2604,24
203,81	3213,95
204,27	2662,36
204,74	2660,02
205,20	2644,03
205,67	2635,44
206,13	2630,37
206,60	2664,70
207,06	2634,27
207,53	2668,60
208,00	2638,56
208,46	2715,80
208,93	2735,70
209,39	2647,15
209,86	2664,31
210,32	2732,19
210,78	2799,28
211,25	2617,50
211,71	2670,94
212,18	2629,20
212,64	2629,59
213,11	2704,49
213,57	2665,09
214,04	2686,15
214,50	2622,96
214,97	2929,18
215,43	2771,58
215,89	2658,46
216,36	2621,40
216,82	2621,79
217,29	2607,75
217,75	2620,62
218,22	2618,67
218,68	2686,54
219,14	2676,79
219,61	2695,52
220,07	2675,23
220,53	2661,58
221,00	2647,15
221,46	2588,63
221,93	2682,64
222,39	2573,81
222,85	2697,47
223,32	2631,54
223,78	2604,24
224,24	2841,80
224,71	2643,64
225,17	2635,83
225,63	2599,95
226,10	2633,49
226,56	2633,49
227,02	2629,98
227,48	2619,06
227,95	2615,16
228,41	2587,07
228,87	2645,59
229,34	2748,57
229,80	2560,94
230,26	2587,46
230,72	2675,62
231,19	2676,79
231,65	2603,46
232,11	2637,78
232,57	2617,50
233,04	2609,31
233,50	2601,51
233,96	2596,43
234,42	2648,71
234,88	2628,81
235,35	2655,34
235,81	2629,98
236,27	2631,54
236,73	2650,27
237,19	2633,49
237,66	2670,94
238,12	2594,48
238,58	2612,04
239,04	2627,64
239,50	2686,15
239,96	2694,35
240,43	2616,33
240,89	2689,67
241,35	2592,92
241,81	2610,09
242,27	2635,05
242,73	2615,16
243,19	2643,64
243,66	2635,83
244,12	2649,49
244,58	2684,98
245,04	2609,70
245,50	2608,53
245,96	2631,54
246,42	2631,93
246,88	2660,02
247,34	2801,23
247,80	2641,29
248,26	2816,05
248,72	2668,60
249,18	2731,02
249,65	2616,33
250,11	2679,52
250,57	2629,59
251,03	2635,05
251,49	2592,53
251,95	2648,71
252,41	2647,93
252,87	2635,83
253,33	2678,35
253,79	2662,75
254,25	2658,85
254,71	2640,90
255,17	2626,47
255,63	2638,17
256,09	2582,78
256,55	2635,83
257,01	2764,17
257,47	2731,80
257,92	2660,41
258,38	2739,99
258,84	2678,35
259,30	2642,46
259,76	2627,64
260,22	2693,96
260,68	2650,27
261,14	2644,81
261,60	2627,25
262,06	2661,58
262,52	2747,40
262,98	2699,03
263,43	2712,68
263,89	2631,54
264,35	2634,27
264,81	2632,32
265,27	2652,22
265,73	2648,32
266,19	2685,76
266,65	2672,11
267,10	2612,43
267,56	2632,32
268,02	2635,83
268,48	2617,50
268,94	2686,54
269,40	2620,62
269,85	2608,14
270,31	2621,40
270,77	2645,59
271,23	2653,39
271,69	2649,88
272,14	2692,01
272,60	2639,73
273,06	2609,70
273,52	2706,05
273,98	2633,49
274,43	2646,37
274,89	2640,90
275,35	2595,26
275,81	2786,80
276,26	2679,52
276,72	2624,91
277,18	2637,78
277,63	2805,13
278,09	2768,46
278,55	2631,15
279,01	2674,84
279,46	2617,89
279,92	2619,84
280,38	2631,15
280,83	2608,14
281,29	2634,66
281,75	2636,61
282,20	2687,33
282,66	2677,96
283,12	2636,61
283,57	2672,11
284,03	2654,95
284,49	2685,37
284,94	2714,63
285,40	2644,03
285,86	2740,77
286,31	2680,30
286,77	2647,15
287,23	2661,97
287,68	2643,25
288,14	2707,22
288,59	2640,51
289,05	2663,53
289,51	2737,65
289,96	2667,82
290,42	2722,04
290,87	2659,24
291,33	2649,49
291,78	2646,37
292,24	2644,42
292,70	2636,61
293,15	2686,94
293,61	2712,29
294,06	2799,67
294,52	2643,64
294,97	2660,80
295,43	2736,87
295,88	2637,78
296,34	2672,11
296,79	2671,33
297,25	2654,95
297,70	2693,57
298,16	2661,97
298,61	2713,07
299,07	2705,66
299,52	2685,37
299,98	2693,96
300,43	2901,48
300,89	2690,45
301,34	2715,41
301,80	2672,11
302,25	2736,87
302,71	2744,28
303,16	2665,09
303,61	2677,57
304,07	2741,55
304,52	2671,72
304,98	2677,57
305,43	2723,99
305,88	2684,98
306,34	2706,05
306,79	2747,01
307,25	2796,94
307,70	2651,44
308,15	2720,48
308,61	2680,30
309,06	2803,57
309,52	2750,13
309,97	2666,26
310,42	2754,81
310,88	2740,38
311,33	2750,52
311,78	2693,18
312,24	2790,31
312,69	2704,10
313,14	2683,03
313,60	2674,45
314,05	2681,86
314,50	2772,36
314,95	2710,34
315,41	2875,35
315,86	2834,39
316,31	2761,44
316,77	2726,33
317,22	2718,53
317,67	2676,01
318,12	2750,13
318,58	2764,56
319,03	2806,30
319,48	2807,08
319,93	2860,13
320,39	2752,08
320,84	2777,83
321,29	2786,02
321,74	2803,18
322,20	2832,83
322,65	2885,49
323,10	2994,33
323,55	3071,17
324,00	3240,47
324,46	3469,06
324,91	3774,50
325,36	4258,21
325,81	4832,82
326,26	5629,38
326,71	6197,74
327,17	6945,54
327,62	7522,09
328,07	8305,39
328,52	9071,92
328,97	9589,96
329,42	10124,38
329,87	10746,57
330,33	11160,84
330,78	11604,77
331,23	11811,12
331,68	12083,80
332,13	12310,83
332,58	12226,57
333,03	12031,91
333,48	11781,09
333,93	11517,78
334,38	11559,52
334,84	11693,71
335,29	11973,01
335,74	12090,43
336,19	12356,08
336,64	12716,13
337,09	13126,50
337,54	13462,76
337,99	13735,43
338,44	13987,43
338,89	14308,08
339,34	14369,72
339,79	14451,64
340,24	14409,51
340,69	14365,04
341,14	14600,65
341,59	14724,31
342,04	14825,73
342,49	15144,44
342,94	15331,68
343,39	15744,78
343,84	15830,21
344,29	15809,93
344,74	16029,55
345,19	16051,00
345,64	16073,63
346,09	16229,27
346,54	16453,58
346,99	16727,81
347,43	17154,18
347,88	17457,67
348,33	17940,60
348,78	18155,93
349,23	18632,22
349,68	18755,49
350,13	18682,16
350,58	18706,34
351,03	18840,53
351,48	18595,17
351,92	18531,19
352,37	18689,96
352,82	18751,98
353,27	18991,89
353,72	19185,37
354,17	19527,87
354,62	20205,84
355,06	20423,51
355,51	20680,19
355,96	21094,47
356,41	21163,90
356,86	21449,84
357,30	21456,08
357,75	21440,09
358,20	21463,10
358,65	21510,30
359,10	21752,55
359,54	21701,84
359,99	21765,81
360,44	21820,81
360,89	21792,73
361,34	21878,94
361,78	21892,98
362,23	21833,30
362,68	22032,24
363,13	22056,04
363,57	22121,18
364,02	22393,08
364,47	22476,94
364,91	22512,83
365,36	22630,64
365,81	22725,04
366,26	22711,00
366,70	22815,93
367,15	22574,86
367,60	22278,78
368,04	22237,43
368,49	22102,07
368,94	21871,14
369,38	21703,01
369,83	21674,53
370,28	21615,24
370,72	21762,69
371,17	22056,43
371,62	22019,37
372,06	22185,16
372,51	22371,23
372,96	22194,52
373,40	21881,67
373,85	21733,82
374,29	21571,55
374,74	21299,66
375,19	20733,64
375,63	20488,27
376,08	20198,04
376,52	19789,62
376,97	19687,42
377,42	19254,03
377,86	18899,44
378,31	18686,84
378,75	18285,44
379,20	18047,09
379,64	17653,10
380,09	17252,87
380,53	16916,22
380,98	16352,93
381,43	15904,72
381,87	15539,99
382,32	14805,84
382,76	14453,20
383,21	13811,50
383,65	13482,27
384,10	13042,64
384,54	12549,17
384,99	11971,06
385,43	11572,78
385,88	11011,44
386,32	10601,07
386,76	9988,24
387,21	9540,80
387,65	8961,91
388,10	8565,19
388,54	7928,56
388,99	7676,57
389,43	7303,25
389,88	6660,77
390,32	6253,52
390,76	5981,24
391,21	5621,97
391,65	5308,34
392,10	5342,66
392,54	4777,42
392,98	4534,79
393,43	4321,02
393,87	4074,09
394,32	3928,98
394,76	3764,36
395,20	3603,64
395,65	3533,43
396,09	3468,67
396,53	3297,03
396,98	3222,92
397,42	3141,00
397,86	3091,85
398,31	2976,77
398,75	2962,73
399,19	2887,83
399,64	2825,81
400,08	2815,66
400,52	2817,61
400,97	2794,21
401,41	2784,85
401,85	2801,23
402,30	2708,39
402,74	2745,84
403,18	2749,74
403,62	2731,80
404,07	2738,04
404,51	2731,02
404,95	2768,85
405,39	2677,57
405,84	2690,84
406,28	2715,80
406,72	2665,87
407,16	2825,03
407,61	2686,15
408,05	2690,45
408,49	2714,63
408,93	2772,36
409,37	2760,66
409,82	2717,75
410,26	2678,35
410,70	2753,64
411,14	2659,24
411,58	2736,09
412,02	2688,50
412,47	2725,94
412,91	2690,84
413,35	2717,36
413,79	2828,93
414,23	2754,81
414,67	2731,80
415,12	2755,98
415,56	2672,50
416,00	2703,32
416,44	2690,84
416,88	2741,55
417,32	2718,14
417,76	2680,30
418,20	2794,99
418,64	2653,00
419,08	2715,80
419,53	2672,89
419,97	2651,44
420,41	2679,91
420,85	2688,50
421,29	2784,46
421,73	2681,08
422,17	2684,98
422,61	2737,65
423,05	2674,45
423,49	2691,62
423,93	2683,03
424,37	2668,60
424,81	2794,21
425,25	2686,54
425,69	2687,33
426,13	2662,36
426,57	2692,79
427,01	2660,41
427,45	2626,47
427,89	2716,97
428,33	2688,89
428,77	2653,78
429,21	2707,61
429,65	2652,61
430,09	2672,89
430,53	2705,66
430,97	2721,65
431,41	2741,16
431,85	2770,80
432,29	2679,13
432,73	2711,51
433,16	2682,64
433,60	2656,51
434,04	2719,31
434,48	2733,36
434,92	2709,17
435,36	2696,30
435,80	2818,79
436,24	2708,78
436,68	2701,37
437,12	2700,98
437,55	2770,41
437,99	2713,07
438,43	2699,42
438,87	2736,87
439,31	2711,51
439,75	2665,48
440,18	2707,61
440,62	2694,35
441,06	2682,64
441,50	2749,74
441,94	2779,39
442,38	2660,41
442,81	2651,05
443,25	2647,93
443,69	2659,63
444,13	2635,44
444,57	2676,40
445,00	2727,11
445,44	2695,91
445,88	2724,77
446,32	2698,25
446,75	2727,50
447,19	2657,29
447,63	2816,44
448,07	2653,39
448,50	2697,86
448,94	2687,72
449,38	2693,57
449,82	2702,15
450,25	2664,31
450,69	2662,75
451,13	2838,29
451,56	2683,81
452,00	2733,36
452,44	2695,13
452,87	2652,22
453,31	2664,31
453,75	2665,87
454,18	2648,32
454,62	2711,51
455,06	2696,69
455,49	2738,43
455,93	2658,85
456,37	2709,95
456,80	2676,40
457,24	2664,70
457,68	2743,89
458,11	2719,70
458,55	2690,84
458,98	2746,62
459,42	2754,42
459,86	2714,24
460,29	2703,71
460,73	2763,00
461,16	2668,21
461,60	2736,48
462,04	2756,76
462,47	2715,41
462,91	2676,40
463,34	2666,26
463,78	2785,24
464,21	2699,03
464,65	2763,00
465,08	2674,84
465,52	2715,41
465,96	2745,45
466,39	2720,09
466,83	2771,58
467,26	2807,47
467,70	2719,31
468,13	2698,25
468,57	2698,25
469,00	2784,85
469,44	2658,85
469,87	2700,98
470,31	2693,18
470,74	2772,75
471,17	2765,73
471,61	2705,66
472,04	2770,80
472,48	2807,08
472,91	2716,58
473,35	2726,33
473,78	2810,20
474,22	2741,55
474,65	2870,67
475,08	2775,10
475,52	2726,33
475,95	2775,88
476,39	2750,13
476,82	2749,74
477,25	2739,21
477,69	2720,48
478,12	2804,74
478,56	2906,95
478,99	2817,61
479,42	2750,52
479,86	2763,00
480,29	2761,05
480,72	2712,68
481,16	2726,72
481,59	2756,76
482,02	2752,47
482,46	2806,30
482,89	2750,91
483,32	2743,89
483,76	2716,58
484,19	2768,07
484,62	2744,67
485,06	2805,13
485,49	2691,23
485,92	2768,85
486,35	2799,28
486,79	2679,13
487,22	2908,51
487,65	2936,20
488,09	2696,30
488,52	2709,95
488,95	2719,31
489,38	2762,22
489,82	2812,15
490,25	2742,72
490,68	2716,97
491,11	2735,70
491,54	2686,94
491,98	2705,66
492,41	2720,09
492,84	2742,33
493,27	2711,90
493,70	2727,50
494,14	2765,73
494,57	2742,72
495,00	2681,86
495,43	2729,84
495,86	2714,63
496,30	2816,83
496,73	2743,11
497,16	2688,89
497,59	2670,55
498,02	2698,25
498,45	2665,87
498,88	2739,60
499,32	2690,84
499,75	2665,09
500,18	2747,79
500,61	2694,74
501,04	2777,83
501,47	2691,23
501,90	2672,11
502,33	2681,47
502,76	2667,43
503,19	2735,70
503,62	2657,29
504,06	2703,71
504,49	2698,25
504,92	2693,18
505,35	2654,17
505,78	2698,64
506,21	2693,96
506,64	2712,68
507,07	2695,13
507,50	2743,50
507,93	2676,40
508,36	2709,17
508,79	2704,49
509,22	2699,42
509,65	2706,83
510,08	2762,61
510,51	2716,19
510,94	2724,77
511,37	2792,26
511,80	2734,92
512,23	2691,23
512,66	2691,23
513,09	2726,72
513,52	2700,59
513,95	2722,82
514,38	2805,52
514,81	2752,86
515,23	2710,73
515,66	2817,22
516,09	2790,70
516,52	2720,09
516,95	2718,53
517,38	2718,53
517,81	2701,76
518,24	2795,38
518,67	2814,49
519,10	2700,98
519,53	2700,59
519,95	2767,68
520,38	2725,16
520,81	2729,84
521,24	2689,28
521,67	2703,32
522,10	2702,93
522,53	2725,55
522,95	2739,99
523,38	2773,14
523,81	2704,88
524,24	2761,83
524,67	2797,33
525,09	2691,62
525,52	2723,99
525,95	2707,22
526,38	2670,94
526,81	2699,03
527,23	2725,55
527,66	2760,66
528,09	2755,59
528,52	2745,45
528,95	2672,50
529,37	2771,19
529,80	2693,96
530,23	2755,98
530,66	2721,65
531,08	2732,97
531,51	2726,33
531,94	2720,09
532,37	2718,92
532,79	2692,40
533,22	2706,83
533,65	2743,11
534,07	2743,11
534,50	2724,38
534,93	2858,96
535,35	2733,36
535,78	2723,99
536,21	2758,71
536,63	2812,15
537,06	2769,63
537,49	2794,99
537,91	2711,51
538,34	2728,28
538,77	2783,68
539,19	2773,53
539,62	2728,28
540,05	2798,89
540,47	2756,37
540,90	2772,75
541,33	2781,34
541,75	2728,28
542,18	2797,33
542,60	2797,72
543,03	2756,37
543,45	2743,89
543,88	2772,36
544,31	2817,61
544,73	2782,51
545,16	2809,03
545,58	2750,52
546,01	2755,59
546,43	2787,19
546,86	2748,96
547,29	2737,65
547,71	2809,42
548,14	2786,41
548,56	2831,66
548,99	2764,95
549,41	2826,98
549,84	2768,07
550,26	2885,88
550,69	2803,57
551,11	2771,97
551,54	2816,05
551,96	2745,45
552,39	2809,42
552,81	2822,30
553,24	2824,64
553,66	2806,69
554,08	2789,53
554,51	2821,13
554,93	2903,04
555,36	2761,44
555,78	2796,94
556,21	2789,14
556,63	2784,46
557,06	2792,65
557,48	2771,19
557,90	2731,02
558,33	2885,10
558,75	2809,42
559,18	2879,25
559,60	2941,27
560,02	2835,95
560,45	2810,98
560,87	2855,84
561,29	2822,30
561,72	2761,05
562,14	2757,93
562,57	2811,37
562,99	2830,88
563,41	2813,32
563,84	2844,14
564,26	2849,60
564,68	2819,57
565,11	2874,96
565,53	2824,25
565,95	2796,55
566,37	2799,67
566,80	2825,03
567,22	2770,80
567,64	2805,13
568,07	2857,01
568,49	3045,82
568,91	2858,57
569,33	2959,22
569,76	2829,32
570,18	2860,52
570,60	2909,68
571,03	2902,26
571,45	2907,34
571,87	2884,32
572,29	2844,92
572,71	2901,48
573,14	2839,07
573,56	2862,48
573,98	2821,91
574,40	2940,10
574,83	2814,49
575,25	2819,18
575,67	2839,46
576,09	2853,89
576,51	2855,45
576,93	2839,85
577,36	2827,37
577,78	2855,84
578,20	2868,33
578,62	2831,27
579,04	2842,58
579,46	2851,94
579,89	2926,06
580,31	2852,72
580,73	2835,17
581,15	2838,68
581,57	2834,00
581,99	2823,08
582,41	2828,15
582,83	2954,93
583,25	2860,91
583,68	2876,13
584,10	2852,72
584,52	2832,44
584,94	2853,89
585,36	2800,45
585,78	2854,28
586,20	2819,96
586,62	2825,03
587,04	2826,98
587,46	2851,94
587,88	2864,04
588,30	2844,53
588,72	2834,39
589,14	2828,54
589,56	2827,37
589,98	2850,38
590,40	2889,78
590,82	2834,39
591,24	2810,59
591,66	2833,22
592,08	2818,00
592,50	2885,49
592,92	2797,33
593,34	2878,86
593,76	2862,87
594,18	2915,92
594,60	2856,23
595,02	2876,52
595,44	2877,69
595,86	2911,24
596,28	2942,05
596,70	2857,79
597,12	2814,88
597,54	2856,62
597,96	2836,34
598,37	2865,99
598,79	2892,12
599,21	2907,34
599,63	2905,78
600,05	2827,37
600,47	2915,53
600,89	2826,20
601,31	2870,28
601,73	2872,62
602,14	3000,57
602,56	2931,13
602,98	2995,89
603,40	2935,03
603,82	2898,36
604,24	2850,38
604,65	2897,58
605,07	2933,08
605,49	2839,85
605,91	2896,41
606,33	2921,38
606,75	2881,59
607,16	2880,03
607,58	2875,35
608,00	2830,88
608,42	2879,64
608,83	2886,66
609,25	2935,03
609,67	2919,04
610,09	2878,08
610,51	2845,31
610,92	2819,57
611,34	2887,05
611,76	2870,28
612,17	2835,95
612,59	2866,38
613,01	2827,37
613,43	2823,08
613,84	2870,28
614,26	2835,56
614,68	2871,45
615,10	2866,77
615,51	2877,30
615,93	2918,26
616,35	2910,85
616,76	2907,73
617,18	2831,27
617,60	2840,24
618,01	2854,28
618,43	2877,69
618,85	2816,05
619,26	2831,27
619,68	2895,24
620,09	2843,36
620,51	2857,40
620,93	2864,04
621,34	2823,47
621,76	2876,91
622,18	2870,28
622,59	2867,55
623,01	2946,73
623,42	2911,24
623,84	2871,06
624,26	2837,90
624,67	2899,53
625,09	2980,28
625,50	2809,81
625,92	2789,92
626,33	2895,63
626,75	2892,51
627,17	2912,80
627,58	2936,20
628,00	2846,87
628,41	2839,46
628,83	2860,52
629,24	2841,41
629,66	2904,21
630,07	2862,48
630,49	2841,02
630,90	2928,01
631,32	2949,08
631,73	2839,46
632,15	2887,05
632,56	2816,05
632,98	2835,56
633,39	2839,46
633,81	2801,62
634,22	2827,37
634,63	2850,77
635,05	2777,05
635,46	2825,42
635,88	2867,16
636,29	2784,07
636,71	2870,28
637,12	2938,54
637,54	2847,65
637,95	2855,45
638,36	2889,78
638,78	2832,05
639,19	2809,03
639,61	2830,10
640,02	2815,27
640,43	2825,81
640,85	2826,59
641,26	2836,34
641,67	2827,76
642,09	2979,50
642,50	2800,84
642,91	2831,66
643,33	2807,47
643,74	2836,34
644,15	2848,82
644,57	2881,59
644,98	2849,21
645,39	2836,73
645,81	2841,02
646,22	2837,90
646,63	2894,07
647,05	2809,42
647,46	2864,43
647,87	2866,38
648,29	2911,24
648,70	2880,81
649,11	2863,65
649,52	2830,10
649,94	2882,37
650,35	2838,29
650,76	2798,11
651,17	2850,77
651,59	2935,42
652,00	2867,94
652,41	2867,55
652,82	2859,74
653,24	2825,81
653,65	2877,30
654,06	2877,69
654,47	2865,99
654,88	2937,37
655,30	2884,71
655,71	2866,77
656,12	2801,23
656,53	2812,54
656,94	2793,43
657,35	2895,63
657,77	2849,21
658,18	2789,53
658,59	2950,64
659,00	2841,41
659,41	2865,99
659,82	2860,13
660,23	2830,88
660,65	2882,37
661,06	2890,17
661,47	2845,70
661,88	2819,57
662,29	2828,93
662,70	2858,18
663,11	2825,03
663,52	2804,35
663,93	2807,08
664,34	2892,90
664,76	2853,89
665,17	2858,96
665,58	2829,32
665,99	2833,61
666,40	2804,74
666,81	2885,10
667,22	2835,95
667,63	2887,83
668,04	2848,43
668,45	2886,66
668,86	2815,66
669,27	2833,22
669,68	2949,08
670,09	2804,35
670,50	2856,23
670,91	2773,14
671,32	2904,99
671,73	2837,51
672,14	2884,32
672,55	2830,10
672,96	2785,63
673,37	2826,59
673,78	2805,13
674,19	2897,19
674,60	2854,28
675,01	2844,53
675,42	2889,39
675,82	2817,61
676,23	2859,35
676,64	2981,45
677,05	2845,31
677,46	2934,25
677,87	2849,60
678,28	2883,15
678,69	2857,01
679,10	2891,73
679,51	2898,75
679,91	2894,85
680,32	2837,51
680,73	2820,35
681,14	2776,27
681,55	2825,81
681,96	2868,33
682,37	2821,91
682,78	2795,38
683,18	2821,13
683,59	2824,64
684,00	2952,59
684,41	2829,71
684,82	2813,32
685,22	2920,99
685,63	2846,87
686,04	2832,44
686,45	2869,50
686,86	2909,29
687,26	2818,40
687,67	2875,74
688,08	2814,88
688,49	2796,16
688,90	2895,63
689,30	2934,64
689,71	2816,83
690,12	2862,48
690,53	2875,74
690,93	2826,98
691,34	2776,27
691,75	2819,57
692,15	2826,20
692,56	2890,17
692,97	2817,61
693,38	2805,52
693,78	2778,61
694,19	2778,61
694,60	2776,66
695,00	2830,88
695,41	2819,57
695,82	2823,47
696,22	2843,75
696,63	2842,97
697,04	2835,17
697,44	2815,27
697,85	2802,79
698,26	2842,58
698,66	2897,97
699,07	2813,71
699,48	2819,96
699,88	2818,79
700,29	2915,92
700,69	2826,59
701,10	2862,48
701,51	2785,24
701,91	2868,33
702,32	2853,50
702,72	2878,86
703,13	2878,08
703,54	2785,24
703,94	2878,86
704,35	2828,54
704,75	2757,15
705,16	2809,03
705,56	2834,39
705,97	2818,79
706,37	2798,11
706,78	2798,11
707,18	2812,15
707,59	2828,93
707,99	2764,17
708,40	2789,92
708,81	2820,74
709,21	2879,64
709,62	2787,19
710,02	2759,49
710,42	2785,63
710,83	2787,97
711,23	2802,79
711,64	2820,35
712,04	2837,12
712,45	2812,93
712,85	2822,69
713,26	2867,55
713,66	2776,66
714,07	2826,98
714,47	2818,40
714,87	2770,41
715,28	2748,57
715,68	2779,39
716,09	2763,00
716,49	2853,50
716,90	2769,24
717,30	2772,36
717,70	2754,42
718,11	2797,72
718,51	2831,66
718,91	2794,99
719,32	2809,81
719,72	2761,83
720,13	2784,07
720,53	2780,17
720,93	2840,63
721,34	2786,80
721,74	2825,03
722,14	2852,33
722,55	2829,32
722,95	2836,34
723,35	2786,80
723,76	2830,49
724,16	2819,96
724,56	2773,53
724,97	2807,47
725,37	2805,91
725,77	2760,27
726,17	2777,44
726,58	2778,22
726,98	2803,57
727,38	2803,18
727,78	2769,63
728,19	2798,11
728,59	2859,74
728,99	2816,44
729,39	2777,44
729,80	2752,47
730,20	2766,90
730,60	2882,37
731,00	2839,85
731,41	2815,27
731,81	2862,09
732,21	2838,29
732,61	2896,41
733,01	2812,54
733,42	2892,90
733,82	2866,77
734,22	2812,54
734,62	2890,56
735,02	2951,03
735,42	2773,92
735,83	2896,41
736,23	2885,10
736,63	2838,29
737,03	2941,27
737,43	2960,39
737,83	2855,45
738,23	2861,30
738,64	2895,63
739,04	2847,26
739,44	2843,36
739,84	2836,73
740,24	2814,10
740,64	2780,56
741,04	2807,08
741,44	2815,66
741,84	2784,85
742,24	2796,16
742,64	2890,56
743,05	2793,04
743,45	2843,75
743,85	2807,08
744,25	2832,44
744,65	2780,95
745,05	2872,23
745,45	2877,69
745,85	2940,88
746,25	2908,90
746,65	2807,86
747,05	2831,66
747,45	2892,90
747,85	2848,04
748,25	2832,83
748,65	2874,57
749,05	2798,89
749,45	2851,16
749,85	2838,29
750,25	2838,29
750,65	2844,92
751,05	2803,18
751,45	2806,30
751,85	2839,46
752,25	2817,22
752,64	2880,42
753,04	2827,76
753,44	2878,47
753,84	2890,95
754,24	2817,22
754,64	2862,48
755,04	2965,46
755,44	2869,89
755,84	2881,98
756,24	2850,38
756,64	2865,21
757,03	2962,73
757,43	2842,58
757,83	2857,79
758,23	2832,44
758,63	2871,45
759,03	3002,52
759,43	2824,25
759,82	2841,41
760,22	2878,86
760,62	2885,88
761,02	2869,50
761,42	2929,57
761,82	2935,03
762,21	2895,63
762,61	2848,82
763,01	2979,89
763,41	2933,86
763,81	2883,15
764,20	2839,46
764,60	2963,90
765,00	2874,57
765,40	2939,71
765,79	2908,12
766,19	2889,78
766,59	2902,65
766,99	2878,08
767,38	2907,73
767,78	2825,42
768,18	2823,08
768,58	2901,09
768,97	2880,03
769,37	2945,95
769,77	2821,91
770,16	2870,28
770,56	2884,32
770,96	2856,62
771,36	2855,06
771,75	2883,93
772,15	2950,64
772,55	2953,76
772,94	2871,06
773,34	2875,35
773,74	2853,11
774,13	2863,65
774,53	2852,72
774,93	2920,60
775,32	2901,87
775,72	2854,28
776,11	2907,73
776,51	2860,91
776,91	2874,57
777,30	2885,49
777,70	2888,22
778,10	2947,90
778,49	2912,80
778,89	2900,31
779,28	2922,55
779,68	2862,87
780,07	2851,94
780,47	2878,47
780,87	2882,37
781,26	2887,05
781,66	2912,02
782,05	2850,38
782,45	2914,75
782,84	2892,51
783,24	2898,36
783,63	2961,95
784,03	2920,21
784,42	2866,38
784,82	2963,51
785,21	2979,89
785,61	2985,74
786,00	2885,49
786,40	2835,17
786,79	2849,99
787,19	2917,87
787,58	2933,08
787,98	2927,62
788,37	2889,78
788,77	2880,42
789,16	2926,84
789,56	2867,16
789,95	2903,04
790,35	3061,42
790,74	2998,23
791,13	3045,43
791,53	2903,04
791,92	2908,12
792,32	2879,25
792,71	2883,93
793,10	2865,60
793,50	2897,58
793,89	2863,65
794,29	2899,92
794,68	2899,14
795,07	2930,74
795,47	2897,58
795,86	2854,28
796,26	2851,16
796,65	2862,09
797,04	2865,60
797,44	2865,21
797,83	2839,07
798,22	2881,98
798,62	3033,33
799,01	2912,80
799,40	2900,70
799,80	2983,01
800,19	2866,38
800,58	2894,07
800,97	2940,49
801,37	2892,51
801,76	2911,24
802,15	2877,69
802,55	2883,54
802,94	2857,01
803,33	4703,70
803,72	3091,85
804,12	2904,60
804,51	2943,22
804,90	2945,95
805,29	2882,37
805,69	2845,70
806,08	2868,72
806,47	2862,09
806,86	2945,95
807,26	2851,94
807,65	2817,61
808,04	2864,04
808,43	2894,85
808,82	2880,03
809,22	2898,75
809,61	2894,07
810,00	2902,65
810,39	2899,92
810,78	2926,84
811,17	2908,12
811,57	2911,24
811,96	2857,40
812,35	2842,97
812,74	2896,02
813,13	2827,76
813,52	2851,55
813,91	2835,56
814,30	2881,98
814,70	2971,70
815,09	2892,90
815,48	2830,88
815,87	2928,40
816,26	2841,41
816,65	2974,04
817,04	2865,60
817,43	2853,89
817,82	2798,11
818,21	2928,01
818,60	2857,79
819,00	2886,27
819,39	2895,24
819,78	2852,33
820,17	2873,01
820,56	2823,47
820,95	2823,86
821,34	2880,03
821,73	2819,57
822,12	2839,07
822,51	2891,73
822,90	2921,38
823,29	2821,91
823,68	2958,05
824,07	2812,15
824,46	2865,21
824,85	2844,53
825,24	2896,41
825,63	2856,62
826,02	2892,12
826,41	2878,47
826,80	2802,40
827,18	2827,37
827,57	2824,25
827,96	2910,07
828,35	2913,97
828,74	2798,50
829,13	2878,08
829,52	2926,06
829,91	2937,37
830,30	2825,03
830,69	2807,47
831,08	2848,43
831,47	2853,50
831,85	2926,45
832,24	2803,96
832,63	2850,77
833,02	2834,78
833,41	2871,45
833,80	2895,24
834,19	2890,56
834,57	2818,00
834,96	2822,69
835,35	2868,33
835,74	2857,01
836,13	2880,03
836,52	2942,05
836,90	2831,27
837,29	2905,38
837,68	2858,57
838,07	2813,71
838,46	2842,19
838,84	2874,18
839,23	2869,50
839,62	2902,26
840,01	2866,77
840,40	2794,99
840,78	2835,95
841,17	2903,43
841,56	2823,08
841,95	2918,26
842,33	2810,20
842,72	2823,08
843,11	2830,10
843,50	2784,46
843,88	2840,24
844,27	2892,90
844,66	2781,73
845,04	2915,14
845,43	2807,86
845,82	2805,13
846,20	2772,75
846,59	2781,73
846,98	2763,39
847,37	2851,55
847,75	2848,04
848,14	2927,23
848,53	2894,07
848,91	2880,03
849,30	2848,43
849,68	2774,32
850,07	2865,60
850,46	2788,75
850,84	2848,82
851,23	2820,35
851,62	2793,82
852,00	2805,52
852,39	2764,95
852,77	2753,64
853,16	2789,53
853,55	2821,91
853,93	2776,66
854,32	2759,49
854,70	2787,97
855,09	2755,20
855,47	2778,61
855,86	2797,72
856,25	2803,18
856,63	2828,15
857,02	2787,97
857,40	2809,42
857,79	2796,94
858,17	2787,97
858,56	2804,35
858,94	2759,10
859,33	2841,02
859,71	2736,87
860,10	2816,05
860,48	2763,78
860,87	2748,57
861,25	2745,06
861,64	2825,42
862,02	2773,53
862,41	2894,85
862,79	2804,35
863,18	2839,46
863,56	2764,56
863,95	2924,50
864,33	2748,96
864,71	2736,48
865,10	2716,19
865,48	2715,41
865,87	2794,60
866,25	2759,49
866,64	2775,10
867,02	2791,87
867,40	2716,97
867,79	2724,38
868,17	2784,07
868,56	2775,88
868,94	2723,60
869,32	2733,75
869,71	2797,72
870,09	2867,16
870,47	2735,31
870,86	2805,52
871,24	2778,22
871,62	2745,06
872,01	2704,88
872,39	2697,86
872,77	2771,97
873,16	2792,26
873,54	2839,85
873,92	2757,15
874,31	2703,71
874,69	2762,22
875,07	2736,48
875,46	2735,70
875,84	2886,27
876,22	2723,60
876,60	2716,58
876,99	2745,06
877,37	2724,38
877,75	2773,14
878,14	2696,30
878,52	2714,24
878,90	2766,51
879,28	2708,00
879,66	2729,06
880,05	2701,37
880,43	2725,16
880,81	2699,42
881,19	2677,18
881,58	2708,78
881,96	2715,80
882,34	2789,14
882,72	2769,24
883,10	2745,84
883,49	2713,07
883,87	2714,24
884,25	2783,68
884,63	2751,30
885,01	2695,13
885,39	2751,69
885,78	2680,69
886,16	2720,09
886,54	2797,33
886,92	2790,70
887,30	2770,02
887,68	2708,78
888,06	2743,11
888,44	2746,62
888,83	2689,28
889,21	2772,75
889,59	2732,97
889,97	2743,89
890,35	2858,57
890,73	2728,67
891,11	2897,97
891,49	2693,57
891,87	2695,13
892,25	2697,47
892,63	2805,91
893,01	2723,60
893,39	2731,02
893,77	2709,56
894,16	2752,08
894,54	2696,30
894,92	2696,69
895,30	2742,33
895,68	2682,25
896,06	2809,81
896,44	2770,41
896,82	2683,03
897,20	2695,52
897,58	2688,50
897,96	2717,75
898,34	2738,43
898,72	2693,96
899,10	2818,40
899,47	2718,53
899,85	2787,19
900,23	2700,98
900,61	2753,25
900,99	2765,73
901,37	2684,20
901,75	2697,08
902,13	2812,15
902,51	2701,37
902,89	2716,97
903,27	2702,93
903,65	2799,67
904,03	2705,66
904,40	2770,41
904,78	2814,10
905,16	2724,38
905,54	2671,72
905,92	2704,88
906,30	2680,30
906,68	2736,87
907,06	2706,44
907,43	2754,03
907,81	2684,98
908,19	2697,47
908,57	2677,18
908,95	2702,93
909,33	2675,62
909,70	2695,13
910,08	2721,26
910,46	2726,33
910,84	2739,21
911,22	2725,55
911,59	2746,23
911,97	2676,01
912,35	2698,25
912,73	2734,92
913,11	2699,03
913,48	2665,87
913,86	2667,82
914,24	2711,12
914,62	2696,69
914,99	2721,65
915,37	2639,34
915,75	2755,20
916,13	2681,08
916,50	2844,92
916,88	2666,26
917,26	2741,55
917,63	2666,65
918,01	2749,35
918,39	2670,94
918,77	2690,84
919,14	2800,45
919,52	2728,67
919,90	2642,85
920,27	2671,33
920,65	2762,61
921,03	2691,23
921,40	2672,50
921,78	2678,74
922,16	2659,63
922,53	2647,54
922,91	2631,93
923,28	2621,40
923,66	2713,46
924,04	2705,66
924,41	2652,61
924,79	2671,72
925,17	2663,53
925,54	2610,87
925,92	2614,77
926,29	2653,00
926,67	2633,49
927,05	2672,11
927,42	2677,96
927,80	2729,84
928,17	2677,96
928,55	2720,87
928,92	2676,40
929,30	2679,13
929,67	2732,58
930,05	2681,86
930,43	2688,89
930,80	2748,57
931,18	2630,76
931,55	2715,80
931,93	2687,33
932,30	2876,13
932,68	2664,31
933,05	2655,34
933,43	2652,61
933,80	2615,55
934,18	2655,73
934,55	2628,03
934,92	2808,64
935,30	2661,58
935,67	2641,68
936,05	2735,70
936,42	2642,07
936,80	2668,21
937,17	2637,39
937,55	2612,43
937,92	2742,33
938,29	2645,59
938,67	2710,73
939,04	2704,49
939,42	2763,78
939,79	2681,86
940,16	2621,79
940,54	2762,22
940,91	2642,46
941,29	2622,18
941,66	2641,29
942,03	2633,49
942,41	2716,97
942,78	2636,61
943,15	2697,47
943,53	2635,05
943,90	2634,27
944,27	2638,95
944,65	2648,71
945,02	2640,90
945,39	2677,57
945,77	2712,68
946,14	2721,26
946,51	2672,50
946,89	2677,57
947,26	2669,38
947,63	2675,62
948,01	2681,47
948,38	2664,31
948,75	2710,34
949,12	2718,53
949,50	2720,09
949,87	2654,17
950,24	2643,64
950,61	2677,96
950,99	2699,42
951,36	2671,33
951,73	2622,96
952,10	2615,16
952,48	2650,27
952,85	2645,20
953,22	2674,84
953,59	2635,83
953,96	2769,63
954,34	2667,43
954,71	2649,10
955,08	2708,00
955,45	2671,72
955,82	2761,05
956,20	2700,20
956,57	2606,19
956,94	2646,76
957,31	2706,83
957,68	2654,56
958,05	2665,87
958,42	2666,65
958,80	2677,57
959,17	2633,88
959,54	2709,95
959,91	2674,84
960,28	2700,98
960,65	2687,72
961,02	2608,53
961,39	2738,82
961,76	2672,50
962,14	2691,23
962,51	2668,60
962,88	2663,53
963,25	2640,90
963,62	2681,08
963,99	2617,89
964,36	2665,09
964,73	2612,04
965,10	2678,74
965,47	2623,35
965,84	2686,94
966,21	2689,67
966,58	2724,77
966,95	2634,27
967,32	2666,65
967,69	2702,15
968,06	2722,43
968,43	2616,72
968,80	2757,54
969,17	2628,42
969,54	2696,69
969,91	2702,93
970,28	2683,81
970,65	2647,15
971,02	2632,71
971,39	2621,79
971,76	2680,69
972,13	2638,17
972,50	2698,64
972,87	2712,29
973,24	2613,60
973,61	2634,27
973,98	2689,28
974,34	2641,68
974,71	2724,38
975,08	2650,66
975,45	2663,92
975,82	2691,62
976,19	2715,02
976,56	2713,46
976,93	2661,19
977,30	2664,70
977,66	2635,83
978,03	2723,60
978,40	2627,64
978,77	2738,04
979,14	2654,95
979,51	2642,07
979,88	2646,37
980,24	2702,54
980,61	2689,67
980,98	2631,93
981,35	2678,74
981,72	2686,54
982,08	2684,20
982,45	2622,18
982,82	2692,79
983,19	2634,27
983,56	2741,94
983,92	2743,11
984,29	2651,44
984,66	2658,46
985,03	2693,18
985,39	2731,02
985,76	2724,77
986,13	2653,39
986,50	2687,33
986,86	2662,75
987,23	2631,54
987,60	2626,47
987,97	2745,06
988,33	2644,81
988,70	2646,37
989,07	2656,90
989,43	2661,58
989,80	2617,50
990,17	2611,26
990,53	2617,11
990,90	2718,14
991,27	2644,81
991,63	2638,17
992,00	2628,03
992,37	2677,57
992,73	2711,90
993,10	2658,85
993,47	2619,06
993,83	2676,01
994,20	2637,00
994,57	2708,00
994,93	2643,64
995,30	2760,27
995,66	2637,78
996,03	2665,48
996,40	2677,57
996,76	2631,15
997,13	2661,19
997,49	2621,79
997,86	2628,42
998,23	2671,72
998,59	2679,13
998,96	2628,42
999,32	2665,09
999,69	2658,07
1000,05	2667,04
1000,42	2661,97
1000,78	2613,21
1001,15	2628,81
1001,51	2638,56
1001,88	2624,52
1002,24	2661,97
1002,61	2677,57
1002,97	2767,68
1003,34	2644,03
1003,70	2619,84
1004,07	2750,13
1004,43	2664,31
1004,80	2630,37
1005,16	2721,65
1005,53	2726,33
1005,89	2623,35
1006,26	2622,57
1006,62	2592,92
1006,99	2701,76
1007,35	2689,67
1007,72	2673,67
1008,08	2638,17
1008,44	2668,21
1008,81	2638,17
1009,17	2642,46
1009,54	2636,22
1009,90	2603,07
1010,26	2648,32
1010,63	2691,62
1010,99	2674,06
1011,36	2626,86
1011,72	2690,84
1012,08	2702,93
1012,45	2626,86
1012,81	2652,22
1013,17	2698,25
1013,54	2629,59
1013,90	2633,88
1014,26	2629,20
1014,63	2637,00
1014,99	2667,82
1015,35	2616,72
1015,72	2693,57
1016,08	2628,03
1016,44	2683,42
1016,81	2642,07
1017,17	2643,64
1017,53	2642,46
1017,90	2779,78
1018,26	2677,18
1018,62	2630,76
1018,98	2654,95
1019,35	2653,78
1019,71	2600,34
1020,07	2732,97
1020,43	2633,10
1020,80	2656,12
1021,16	2628,42
1021,52	2706,05
1021,88	2660,02
1022,25	2704,49
1022,61	2674,84
1022,97	2640,51
1023,33	2619,84
1023,70	2656,90
1024,06	2597,21
1024,42	2670,16
1024,78	2655,73
1025,14	2648,71
1025,50	2613,99
1025,87	2702,15
1026,23	2640,90
1026,59	2625,30
1026,95	2584,73
1027,31	2618,28
1027,67	2649,49
1028,04	2602,68
1028,40	2684,20
1028,76	2660,80
1029,12	2640,12
1029,48	2645,98
1029,84	2648,71
1030,20	2649,88
1030,56	2625,30
1030,92	2704,10
1031,29	2644,42
1031,65	2604,24
1032,01	2632,71
1032,37	2603,07
1032,73	2691,23
1033,09	2698,64
1033,45	2720,48
1033,81	2616,33
1034,17	2642,46
1034,53	2589,80
1034,89	2635,05
1035,25	2635,05
1035,61	2635,05
>>>>>End Processed Spectral Data<<<<<
