SpectraSuite Data File
++++++++++++++++++++++++++++++++++++
Date: Wed Feb 24 12:51:32 EET 2016
User: OO Maya
Dark Spectrum Present: No
Reference Spectrum Present: No
Number of Sampled Component Spectra: 1
Spectrometers: FLMS00673
Integration Time (usec): 700000 (FLMS00673)
Spectra Averaged: 6 (FLMS00673)
Boxcar Smoothing: 0 (FLMS00673)
Correct for Electrical Dark: No (FLMS00673)
Strobe/Lamp Enabled: No (FLMS00673)
Correct for Detector Non-linearity: No (FLMS00673)
Correct for Stray Light: No (FLMS00673)
Number of Pixels in Processed Spectrum: 2048
>>>>>Begin Processed Spectral Data<<<<<
188,41	2190,35
188,88	2190,35
189,35	2190,35
189,82	2110,77
190,28	2190,35
190,75	2201,66
191,22	2229,75
191,68	2177,87
192,15	2184,89
192,62	2297,63
193,08	2255,11
193,55	2307,38
194,02	2246,91
194,48	2289,43
194,95	2369,40
195,42	2326,10
195,88	2336,24
196,35	2361,99
196,82	2382,67
197,28	2401,39
197,75	2419,72
198,22	2434,55
198,68	2489,16
199,15	2486,82
199,61	2475,12
200,08	2564,45
200,55	2481,36
201,01	2543,38
201,48	2602,29
201,94	2546,50
202,41	2540,65
202,88	2595,65
203,34	2559,77
203,81	2995,11
204,27	2670,55
204,74	2635,44
205,20	2602,29
205,67	2608,53
206,13	2622,18
206,60	2621,01
207,06	2614,77
207,53	2631,15
208,00	2650,27
208,46	2656,90
208,93	2688,11
209,39	2656,51
209,86	2629,20
210,32	2667,82
210,78	2741,55
211,25	2605,41
211,71	2677,18
212,18	2607,75
212,64	2622,57
213,11	2680,30
213,57	2629,98
214,04	2663,14
214,50	2628,42
214,97	2845,31
215,43	2711,51
215,89	2630,37
216,36	2614,38
216,82	2607,36
217,29	2602,68
217,75	2622,57
218,22	2629,59
218,68	2675,23
219,14	2652,61
219,61	2638,56
220,07	2618,67
220,53	2619,06
221,00	2610,48
221,46	2606,97
221,93	2623,74
222,39	2582,00
222,85	2648,71
223,32	2603,46
223,78	2556,26
224,24	2720,48
224,71	2597,60
225,17	2616,72
225,63	2612,04
226,10	2591,36
226,56	2594,87
227,02	2613,99
227,48	2572,64
227,95	2631,93
228,41	2591,36
228,87	2613,60
229,34	2699,81
229,80	2582,78
230,26	2572,64
230,72	2647,15
231,19	2633,88
231,65	2614,38
232,11	2585,51
232,57	2608,53
233,04	2583,56
233,50	2609,70
233,96	2594,87
234,42	2629,20
234,88	2617,89
235,35	2597,60
235,81	2617,50
236,27	2597,99
236,73	2635,44
237,19	2612,43
237,66	2608,14
238,12	2602,29
238,58	2615,94
239,04	2633,49
239,50	2640,12
239,96	2641,68
240,43	2590,58
240,89	2669,38
241,35	2606,97
241,81	2603,85
242,27	2605,02
242,73	2636,61
243,19	2624,13
243,66	2612,04
244,12	2618,67
244,58	2621,01
245,04	2594,48
245,50	2601,51
245,96	2603,46
246,42	2592,14
246,88	2620,23
247,34	2740,38
247,80	2619,06
248,26	2751,30
248,72	2621,01
249,18	2711,51
249,65	2578,88
250,11	2641,68
250,57	2593,31
251,03	2588,24
251,49	2620,23
251,95	2621,40
252,41	2618,67
252,87	2610,48
253,33	2622,18
253,79	2659,63
254,25	2648,71
254,71	2646,37
255,17	2596,82
255,63	2644,03
256,09	2618,67
256,55	2612,04
257,01	2696,30
257,47	2671,72
257,92	2628,03
258,38	2701,76
258,84	2640,12
259,30	2635,05
259,76	2588,63
260,22	2671,72
260,68	2616,33
261,14	2621,40
261,60	2613,99
262,06	2629,98
262,52	2701,76
262,98	2628,81
263,43	2654,95
263,89	2607,75
264,35	2597,99
264,81	2602,68
265,27	2601,51
265,73	2594,87
266,19	2633,49
266,65	2621,01
267,10	2562,89
267,56	2583,95
268,02	2608,53
268,48	2570,69
268,94	2637,39
269,40	2651,05
269,85	2639,34
270,31	2631,15
270,77	2584,73
271,23	2649,49
271,69	2633,88
272,14	2676,40
272,60	2658,07
273,06	2609,70
273,52	2665,09
273,98	2618,67
274,43	2639,73
274,89	2618,28
275,35	2632,32
275,81	2720,48
276,26	2638,17
276,72	2601,90
277,18	2613,60
277,63	2738,04
278,09	2687,72
278,55	2605,80
279,01	2695,91
279,46	2627,25
279,92	2604,24
280,38	2597,99
280,83	2632,32
281,29	2627,64
281,75	2597,60
282,20	2658,46
282,66	2642,46
283,12	2596,43
283,57	2671,72
284,03	2619,45
284,49	2634,27
284,94	2676,79
285,40	2633,49
285,86	2678,74
286,31	2659,24
286,77	2605,02
287,23	2649,49
287,68	2629,98
288,14	2660,41
288,59	2612,82
289,05	2659,63
289,51	2713,07
289,96	2625,30
290,42	2680,30
290,87	2607,75
291,33	2633,10
291,78	2645,98
292,24	2619,45
292,70	2603,46
293,15	2628,03
293,61	2643,24
294,06	2695,91
294,52	2600,73
294,97	2587,46
295,43	2690,84
295,88	2606,58
296,34	2667,04
296,79	2660,80
297,25	2637,39
297,70	2627,25
298,16	2645,59
298,61	2615,94
299,07	2647,15
299,52	2654,56
299,98	2628,42
300,43	2752,08
300,89	2623,74
301,34	2616,72
301,80	2644,03
302,25	2655,73
302,71	2692,40
303,16	2638,56
303,61	2638,95
304,07	2687,33
304,52	2657,29
304,98	2583,56
305,43	2664,70
305,88	2639,73
306,34	2681,47
306,79	2676,40
307,25	2713,07
307,70	2623,74
308,15	2637,39
308,61	2610,09
309,06	2721,65
309,52	2683,42
309,97	2640,90
310,42	2648,32
310,88	2660,02
311,33	2661,97
311,78	2628,81
312,24	2679,13
312,69	2654,95
313,14	2646,37
313,60	2628,03
314,05	2613,99
314,50	2657,29
314,95	2630,76
315,41	2756,37
315,86	2702,15
316,31	2671,72
316,77	2637,78
317,22	2618,28
317,67	2621,40
318,12	2655,73
318,58	2669,77
319,03	2666,26
319,48	2670,55
319,93	2688,11
320,39	2626,08
320,84	2625,30
321,29	2651,05
321,74	2634,66
322,20	2646,76
322,65	2626,86
323,10	2629,59
323,55	2644,42
324,00	2652,22
324,46	2629,98
324,91	2656,90
325,36	2611,65
325,81	2619,45
326,26	2671,72
326,71	2633,88
327,17	2710,73
327,62	2681,08
328,07	2665,87
328,52	2679,13
328,97	2662,36
329,42	2612,82
329,87	2641,29
330,33	2645,98
330,78	2704,88
331,23	2636,61
331,68	2632,32
332,13	2664,70
332,58	2669,77
333,03	2611,65
333,48	2652,61
333,93	2677,18
334,38	2644,42
334,84	2650,27
335,29	2671,33
335,74	2634,27
336,19	2636,22
336,64	2636,61
337,09	2676,01
337,54	2654,17
337,99	2628,42
338,44	2635,05
338,89	2668,99
339,34	2658,85
339,79	2613,99
340,24	2599,56
340,69	2658,85
341,14	2696,30
341,59	2674,84
342,04	2621,01
342,49	2652,22
342,94	2649,88
343,39	2706,83
343,84	2691,23
344,29	2683,81
344,74	2665,87
345,19	2669,38
345,64	2661,19
346,09	2644,81
346,54	2655,34
346,99	2621,79
347,43	2747,79
347,88	2677,96
348,33	2692,01
348,78	2665,87
349,23	2668,99
349,68	2665,87
350,13	2670,55
350,58	2641,68
351,03	2657,68
351,48	2597,60
351,92	2622,57
352,37	2647,54
352,82	2624,52
353,27	2629,98
353,72	2646,37
354,17	2654,56
354,62	2663,92
355,06	2622,96
355,51	2649,49
355,96	2656,51
356,41	2635,44
356,86	2630,37
357,30	2635,44
357,75	2628,42
358,20	2626,86
358,65	2665,09
359,10	2694,35
359,54	2675,62
359,99	2635,44
360,44	2656,51
360,89	2660,02
361,34	2633,49
361,78	2634,27
362,23	2651,83
362,68	2631,93
363,13	2630,37
363,57	2628,81
364,02	2692,01
364,47	2701,37
364,91	2605,80
365,36	2646,76
365,81	2615,55
366,26	2629,98
366,70	2726,33
367,15	2650,27
367,60	2632,32
368,04	2650,66
368,49	2636,22
368,94	2684,20
369,38	2667,82
369,83	2673,67
370,28	2613,99
370,72	2623,74
371,17	2768,46
371,62	2645,20
372,06	2690,45
372,51	2702,54
372,96	2637,78
373,40	2602,29
373,85	2647,93
374,29	2602,68
374,74	2677,18
375,19	2646,37
375,63	2630,76
376,08	2656,51
376,52	2642,46
376,97	2768,46
377,42	2670,55
377,86	2636,22
378,31	2623,74
378,75	2621,79
379,20	2625,30
379,64	2628,42
380,09	2641,68
380,53	2684,20
380,98	2639,73
381,43	2632,32
381,87	2688,11
382,32	2635,83
382,76	2663,14
383,21	2672,11
383,65	2637,78
384,10	2614,38
384,54	2665,87
384,99	2650,27
385,43	2654,17
385,88	2638,17
386,32	2673,67
386,76	2628,03
387,21	2711,90
387,65	2668,99
388,10	2688,11
388,54	2687,33
388,99	2729,84
389,43	2822,69
389,88	2673,28
390,32	2648,32
390,76	2632,71
391,21	2699,42
391,65	2690,06
392,10	2851,55
392,54	2671,72
392,98	2676,40
393,43	2695,13
393,87	2621,01
394,32	2626,86
394,76	2642,46
395,20	2631,54
395,65	2692,79
396,09	2662,75
396,53	2645,20
396,98	2666,26
397,42	2652,61
397,86	2670,55
398,31	2635,83
398,75	2610,48
399,19	2631,93
399,64	2622,18
400,08	2635,05
400,52	2645,20
400,97	2651,44
401,41	2656,90
401,85	2672,50
402,30	2605,41
402,74	2631,93
403,18	2652,22
403,62	2628,42
404,07	2641,29
404,51	2663,92
404,95	2690,45
405,39	2628,03
405,84	2642,46
406,28	2662,36
406,72	2653,39
407,16	2737,65
407,61	2631,93
408,05	2661,97
408,49	2640,12
408,93	2663,92
409,37	2657,68
409,82	2643,64
410,26	2631,54
410,70	2671,72
411,14	2614,38
411,58	2683,03
412,02	2635,44
412,47	2663,53
412,91	2640,12
413,35	2688,89
413,79	2701,76
414,23	2651,05
414,67	2642,85
415,12	2717,36
415,56	2617,11
416,00	2676,01
416,44	2656,12
416,88	2705,66
417,32	2652,61
417,76	2650,27
418,20	2723,60
418,64	2628,42
419,08	2670,16
419,53	2628,81
419,97	2623,35
420,41	2623,74
420,85	2640,51
421,29	2711,90
421,73	2627,25
422,17	2673,67
422,61	2653,39
423,05	2618,67
423,49	2644,81
423,93	2648,71
424,37	2647,93
424,81	2719,70
425,25	2677,18
425,69	2638,17
426,13	2652,22
426,57	2654,56
427,01	2629,20
427,45	2612,43
427,89	2633,88
428,33	2653,39
428,77	2614,77
429,21	2633,49
429,65	2646,76
430,09	2643,64
430,53	2665,87
430,97	2660,80
431,41	2699,03
431,85	2710,73
432,29	2627,64
432,73	2647,15
433,16	2649,49
433,60	2625,30
434,04	2674,06
434,48	2686,15
434,92	2656,12
435,36	2634,27
435,80	2755,98
436,24	2670,55
436,68	2636,61
437,12	2661,19
437,55	2678,74
437,99	2642,46
438,43	2640,12
438,87	2670,94
439,31	2632,71
439,75	2633,88
440,18	2674,06
440,62	2631,54
441,06	2678,35
441,50	2664,70
441,94	2684,20
442,38	2623,35
442,81	2646,76
443,25	2612,04
443,69	2613,99
444,13	2641,68
444,57	2656,12
445,00	2659,63
445,44	2617,11
445,88	2687,33
446,32	2629,20
446,75	2658,46
447,19	2609,31
447,63	2738,04
448,07	2617,50
448,50	2644,81
448,94	2636,61
449,38	2633,10
449,82	2660,41
450,25	2624,91
450,69	2627,64
451,13	2766,51
451,56	2617,89
452,00	2684,98
452,44	2655,73
452,87	2633,49
453,31	2621,40
453,75	2624,13
454,18	2626,47
454,62	2631,15
455,06	2654,56
455,49	2648,71
455,93	2631,54
456,37	2661,19
456,80	2598,77
457,24	2582,78
457,68	2679,52
458,11	2654,56
458,55	2661,19
458,98	2663,53
459,42	2670,55
459,86	2653,39
460,29	2651,05
460,73	2677,57
461,16	2622,18
461,60	2677,18
462,04	2664,31
462,47	2654,17
462,91	2660,02
463,34	2642,07
463,78	2685,37
464,21	2642,85
464,65	2668,21
465,08	2649,10
465,52	2619,45
465,96	2663,14
466,39	2631,54
466,83	2710,73
467,26	2667,04
467,70	2661,58
468,13	2633,49
468,57	2623,35
469,00	2712,29
469,44	2651,05
469,87	2649,49
470,31	2615,94
470,74	2665,09
471,17	2709,17
471,61	2647,93
472,04	2657,29
472,48	2686,15
472,91	2662,36
473,35	2633,88
473,78	2680,69
474,22	2646,76
474,65	2716,19
475,08	2671,33
475,52	2650,66
475,95	2687,33
476,39	2644,81
476,82	2611,26
477,25	2627,25
477,69	2657,29
478,12	2685,37
478,56	2752,47
478,99	2701,37
479,42	2654,56
479,86	2650,66
480,29	2654,17
480,72	2635,05
481,16	2640,90
481,59	2663,53
482,02	2650,66
482,46	2690,45
482,89	2628,42
483,32	2690,06
483,76	2622,96
484,19	2645,98
484,62	2616,72
485,06	2715,02
485,49	2622,18
485,92	2665,87
486,35	2722,43
486,79	2626,08
487,22	2747,79
487,65	2795,38
488,09	2621,79
488,52	2629,59
488,95	2642,07
489,38	2677,96
489,82	2700,59
490,25	2680,69
490,68	2653,00
491,11	2644,81
491,54	2621,40
491,98	2613,99
492,41	2614,38
492,84	2677,18
493,27	2630,37
493,70	2641,29
494,14	2703,32
494,57	2698,64
495,00	2649,10
495,43	2704,10
495,86	2658,46
496,30	2679,13
496,73	2645,59
497,16	2656,12
497,59	2638,17
498,02	2630,37
498,45	2638,17
498,88	2663,53
499,32	2651,05
499,75	2620,23
500,18	2689,28
500,61	2674,06
501,04	2701,76
501,47	2611,26
501,90	2605,02
502,33	2620,23
502,76	2636,22
503,19	2692,79
503,62	2623,35
504,06	2636,61
504,49	2629,20
504,92	2644,81
505,35	2635,05
505,78	2639,73
506,21	2596,43
506,64	2650,27
507,07	2646,76
507,50	2673,28
507,93	2629,98
508,36	2622,57
508,79	2653,00
509,22	2648,71
509,65	2638,56
510,08	2674,84
510,51	2645,20
510,94	2648,71
511,37	2691,23
511,80	2657,68
512,23	2660,41
512,66	2631,15
513,09	2662,75
513,52	2649,88
513,95	2661,58
514,38	2684,98
514,81	2704,10
515,23	2660,02
515,66	2718,92
516,09	2714,63
516,52	2647,93
516,95	2678,74
517,38	2641,68
517,81	2640,90
518,24	2669,77
518,67	2669,77
519,10	2663,14
519,53	2631,54
519,95	2710,73
520,38	2676,79
520,81	2627,64
521,24	2626,08
521,67	2635,44
522,10	2633,88
522,53	2600,73
522,95	2645,20
523,38	2701,76
523,81	2649,10
524,24	2684,98
524,67	2691,62
525,09	2645,98
525,52	2667,82
525,95	2595,26
526,38	2645,98
526,81	2642,07
527,23	2683,81
527,66	2674,06
528,09	2668,21
528,52	2663,14
528,95	2648,71
529,37	2676,40
529,80	2622,57
530,23	2637,78
530,66	2649,88
531,08	2654,17
531,51	2629,98
531,94	2667,82
532,37	2618,67
532,79	2630,76
533,22	2616,72
533,65	2661,97
534,07	2668,21
534,50	2631,54
534,93	2715,80
535,35	2623,35
535,78	2651,83
536,21	2676,79
536,63	2686,54
537,06	2686,94
537,49	2674,06
537,91	2632,71
538,34	2635,05
538,77	2669,38
539,19	2643,24
539,62	2658,07
540,05	2649,49
540,47	2657,68
540,90	2645,59
541,33	2651,83
541,75	2649,88
542,18	2704,10
542,60	2669,38
543,03	2673,28
543,45	2622,96
543,88	2663,53
544,31	2674,45
544,73	2645,98
545,16	2682,25
545,58	2639,34
546,01	2632,32
546,43	2682,25
546,86	2630,37
547,29	2610,48
547,71	2655,34
548,14	2659,63
548,56	2670,16
548,99	2660,02
549,41	2689,67
549,84	2641,29
550,26	2732,19
550,69	2673,67
551,11	2630,76
551,54	2687,72
551,96	2617,89
552,39	2646,37
552,81	2651,05
553,24	2659,24
553,66	2631,15
554,08	2634,27
554,51	2676,79
554,93	2694,74
555,36	2637,39
555,78	2647,93
556,21	2638,95
556,63	2639,34
557,06	2664,70
557,48	2616,33
557,90	2635,83
558,33	2708,00
558,75	2649,10
559,18	2727,50
559,60	2727,11
560,02	2643,64
560,45	2597,60
560,87	2697,08
561,29	2649,10
561,72	2607,36
562,14	2629,98
562,57	2638,56
562,99	2642,07
563,41	2689,67
563,84	2681,86
564,26	2663,14
564,68	2633,88
565,11	2685,37
565,53	2614,77
565,95	2610,09
566,37	2627,25
566,80	2637,00
567,22	2617,11
567,64	2648,32
568,07	2637,00
568,49	2782,51
568,91	2662,36
569,33	2705,66
569,76	2623,35
570,18	2667,04
570,60	2690,06
571,03	2684,98
571,45	2688,50
571,87	2652,22
572,29	2650,66
572,71	2672,50
573,14	2621,79
573,56	2638,56
573,98	2617,89
574,40	2679,52
574,83	2629,98
575,25	2624,13
575,67	2591,36
576,09	2604,63
576,51	2644,03
576,93	2622,18
577,36	2661,19
577,78	2661,97
578,20	2647,93
578,62	2658,07
579,04	2622,96
579,46	2626,86
579,89	2657,29
580,31	2627,64
580,73	2633,49
581,15	2646,76
581,57	2598,77
581,99	2617,89
582,41	2641,68
582,83	2713,85
583,25	2629,98
583,68	2651,83
584,10	2642,46
584,52	2622,18
584,94	2617,50
585,36	2599,16
585,78	2654,56
586,20	2659,24
586,62	2632,71
587,04	2648,71
587,46	2615,94
587,88	2633,10
588,30	2654,95
588,72	2645,59
589,14	2605,80
589,56	2594,87
589,98	2657,68
590,40	2654,56
590,82	2613,60
591,24	2633,88
591,66	2628,03
592,08	2613,21
592,50	2655,34
592,92	2679,91
593,34	2644,42
593,76	2657,29
594,18	2659,63
594,60	2660,02
595,02	2649,88
595,44	2667,04
595,86	2717,36
596,28	2680,30
596,70	2655,34
597,12	2630,37
597,54	2635,44
597,96	2647,15
598,37	2658,07
598,79	2654,95
599,21	2681,86
599,63	2681,86
600,05	2647,93
600,47	2676,40
600,89	2636,22
601,31	2665,48
601,73	2613,21
602,14	2767,68
602,56	2683,03
602,98	2746,62
603,40	2725,16
603,82	2661,97
604,24	2619,45
604,65	2650,66
605,07	2702,15
605,49	2596,43
605,91	2656,51
606,33	2689,67
606,75	2649,88
607,16	2677,96
607,58	2651,44
608,00	2640,12
608,42	2636,61
608,83	2662,36
609,25	2692,40
609,67	2667,43
610,09	2607,75
610,51	2630,37
610,92	2605,80
611,34	2640,51
611,76	2629,59
612,17	2649,49
612,59	2676,40
613,01	2635,44
613,43	2607,36
613,84	2620,23
614,26	2649,10
614,68	2665,48
615,10	2642,07
615,51	2667,43
615,93	2694,35
616,35	2663,92
616,76	2682,25
617,18	2638,17
617,60	2629,98
618,01	2642,46
618,43	2645,59
618,85	2659,24
619,26	2626,86
619,68	2662,36
620,09	2665,87
620,51	2648,71
620,93	2650,27
621,34	2626,08
621,76	2661,97
622,18	2660,80
622,59	2647,93
623,01	2699,42
623,42	2692,01
623,84	2649,10
624,26	2668,21
624,67	2633,49
625,09	2689,28
625,50	2647,93
625,92	2636,22
626,33	2690,06
626,75	2671,72
627,17	2679,91
627,58	2689,67
628,00	2641,29
628,41	2624,52
628,83	2642,07
629,24	2625,69
629,66	2681,47
630,07	2631,93
630,49	2648,71
630,90	2674,45
631,32	2704,49
631,73	2659,63
632,15	2679,13
632,56	2651,83
632,98	2619,45
633,39	2624,52
633,81	2610,48
634,22	2651,44
634,63	2647,15
635,05	2637,39
635,46	2629,98
635,88	2645,20
636,29	2622,96
636,71	2669,38
637,12	2696,30
637,54	2649,49
637,95	2647,93
638,36	2703,32
638,78	2626,86
639,19	2615,94
639,61	2660,02
640,02	2615,94
640,43	2629,98
640,85	2622,96
641,26	2620,62
641,67	2634,27
642,09	2789,53
642,50	2655,73
642,91	2623,74
643,33	2615,94
643,74	2666,65
644,15	2611,65
644,57	2679,52
644,98	2665,48
645,39	2617,11
645,81	2671,72
646,22	2621,79
646,63	2668,99
647,05	2626,47
647,46	2652,61
647,87	2633,88
648,29	2684,59
648,70	2677,18
649,11	2660,41
649,52	2634,66
649,94	2653,78
650,35	2680,69
650,76	2601,51
651,17	2635,05
651,59	2665,09
652,00	2647,54
652,41	2642,07
652,82	2660,41
653,24	2642,07
653,65	2671,72
654,06	2675,62
654,47	2659,63
654,88	2690,06
655,30	2668,99
655,71	2624,91
656,12	2615,16
656,53	2653,00
656,94	2630,76
657,35	2692,79
657,77	2639,73
658,18	2622,96
658,59	2733,75
659,00	2640,90
659,41	2664,31
659,82	2647,54
660,23	2658,85
660,65	2674,45
661,06	2682,25
661,47	2667,43
661,88	2630,76
662,29	2626,08
662,70	2665,09
663,11	2618,67
663,52	2557,04
663,93	2616,33
664,34	2650,66
664,76	2646,76
665,17	2649,49
665,58	2610,09
665,99	2634,27
666,40	2655,34
666,81	2712,68
667,22	2662,75
667,63	2708,39
668,04	2649,10
668,45	2689,28
668,86	2678,74
669,27	2630,76
669,68	2704,88
670,09	2631,15
670,50	2671,33
670,91	2615,16
671,32	2686,15
671,73	2640,12
672,14	2684,20
672,55	2683,42
672,96	2627,25
673,37	2617,50
673,78	2635,44
674,19	2664,70
674,60	2658,85
675,01	2657,29
675,42	2665,48
675,82	2671,72
676,23	2653,78
676,64	2741,55
677,05	2645,20
677,46	2724,38
677,87	2687,72
678,28	2725,55
678,69	2633,88
679,10	2693,96
679,51	2731,41
679,91	2689,28
680,32	2622,57
680,73	2651,05
681,14	2655,34
681,55	2642,07
681,96	2709,17
682,37	2618,67
682,78	2647,54
683,18	2633,88
683,59	2633,10
684,00	2750,91
684,41	2650,27
684,82	2635,83
685,22	2724,77
685,63	2674,84
686,04	2643,25
686,45	2653,78
686,86	2675,23
687,26	2645,59
687,67	2690,06
688,08	2636,22
688,49	2648,32
688,90	2706,44
689,30	2713,07
689,71	2633,10
690,12	2660,80
690,53	2663,53
690,93	2635,05
691,34	2615,94
691,75	2649,49
692,15	2627,25
692,56	2734,92
692,97	2616,33
693,38	2653,39
693,78	2616,33
694,19	2644,42
694,60	2630,37
695,00	2656,12
695,41	2652,61
695,82	2640,51
696,22	2648,71
696,63	2658,46
697,04	2667,43
697,44	2659,24
697,85	2647,15
698,26	2667,04
698,66	2703,71
699,07	2630,37
699,48	2639,73
699,88	2635,05
700,29	2700,59
700,69	2658,85
701,10	2672,89
701,51	2620,23
701,91	2638,95
702,32	2648,32
702,72	2693,18
703,13	2676,79
703,54	2618,67
703,94	2689,28
704,35	2614,77
704,75	2628,42
705,16	2655,34
705,56	2654,56
705,97	2633,49
706,37	2630,37
706,78	2672,50
707,18	2625,69
707,59	2658,85
707,99	2613,21
708,40	2616,72
708,81	2626,08
709,21	2725,94
709,62	2640,51
710,02	2630,37
710,42	2643,24
710,83	2651,44
711,23	2656,90
711,64	2635,05
712,04	2636,61
712,45	2633,88
712,85	2619,06
713,26	2666,26
713,66	2629,59
714,07	2659,24
714,47	2666,65
714,87	2621,79
715,28	2649,49
715,68	2629,20
716,09	2631,54
716,49	2677,96
716,90	2633,88
717,30	2628,03
717,70	2643,25
718,11	2650,66
718,51	2692,79
718,91	2621,79
719,32	2668,99
719,72	2618,28
720,13	2647,93
720,53	2647,54
720,93	2681,47
721,34	2624,91
721,74	2658,46
722,14	2676,79
722,55	2629,59
722,95	2653,78
723,35	2642,07
723,76	2671,33
724,16	2676,40
724,56	2635,44
724,97	2655,34
725,37	2651,44
725,77	2622,96
726,17	2638,17
726,58	2619,45
726,98	2622,57
727,38	2613,60
727,78	2603,07
728,19	2629,59
728,59	2668,60
728,99	2662,36
729,39	2621,01
729,80	2609,70
730,20	2631,15
730,60	2699,42
731,00	2629,98
731,41	2662,75
731,81	2657,29
732,21	2695,13
732,61	2667,82
733,01	2645,59
733,42	2713,85
733,82	2638,17
734,22	2645,59
734,62	2683,81
735,02	2713,46
735,42	2631,54
735,83	2699,03
736,23	2680,30
736,63	2654,95
737,03	2715,80
737,43	2752,86
737,83	2655,73
738,23	2669,77
738,64	2704,49
739,04	2661,97
739,44	2645,20
739,84	2637,00
740,24	2657,68
740,64	2606,58
741,04	2660,02
741,44	2645,20
741,84	2616,72
742,24	2630,76
742,64	2662,75
743,05	2621,40
743,45	2642,85
743,85	2644,42
744,25	2678,35
744,65	2610,09
745,05	2690,45
745,45	2676,01
745,85	2723,21
746,25	2737,65
746,65	2642,46
747,05	2651,83
747,45	2675,23
747,85	2673,67
748,25	2631,15
748,65	2649,88
749,05	2621,01
749,45	2670,16
749,85	2600,73
750,25	2625,30
750,65	2644,03
751,05	2617,89
751,45	2621,01
751,85	2646,37
752,25	2617,11
752,64	2687,33
753,04	2653,39
753,44	2665,87
753,84	2658,85
754,24	2631,54
754,64	2629,98
755,04	2721,65
755,44	2672,11
755,84	2645,20
756,24	2615,94
756,64	2608,92
757,03	2727,11
757,43	2650,66
757,83	2630,37
758,23	2625,30
758,63	2647,93
759,03	2731,80
759,43	2649,88
759,82	2608,14
760,22	2645,98
760,62	2659,63
761,02	2647,93
761,42	2683,03
761,82	2676,01
762,21	2680,30
762,61	2653,78
763,01	2735,31
763,41	2660,41
763,81	2627,25
764,20	2639,34
764,60	2709,17
765,00	2621,01
765,40	2700,20
765,79	2657,29
766,19	2681,08
766,59	2634,27
766,99	2670,16
767,38	2684,98
767,78	2617,50
768,18	2607,75
768,58	2672,89
768,97	2665,09
769,37	2675,62
769,77	2632,32
770,16	2594,48
770,56	2650,27
770,96	2628,03
771,36	2649,88
771,75	2629,20
772,15	2716,97
772,55	2685,37
772,94	2633,10
773,34	2624,13
773,74	2625,30
774,13	2633,88
774,53	2634,27
774,93	2651,05
775,32	2688,89
775,72	2649,88
776,11	2666,65
776,51	2637,39
776,91	2617,50
777,30	2663,92
777,70	2657,29
778,10	2686,94
778,49	2640,12
778,89	2626,47
779,28	2639,73
779,68	2600,73
780,07	2606,58
780,47	2611,26
780,87	2651,05
781,26	2629,59
781,66	2637,00
782,05	2625,30
782,45	2644,81
782,84	2661,19
783,24	2628,42
783,63	2645,59
784,03	2638,17
784,42	2654,95
784,82	2684,59
785,21	2695,52
785,61	2670,94
786,00	2629,59
786,40	2597,60
786,79	2597,21
787,19	2649,10
787,58	2655,34
787,98	2652,22
788,37	2653,00
788,77	2623,35
789,16	2631,93
789,56	2634,27
789,95	2599,95
790,35	2738,43
790,74	2753,25
791,13	2746,62
791,53	2627,64
791,92	2644,81
792,32	2645,59
792,71	2609,31
793,10	2644,81
793,50	2657,29
793,89	2645,20
794,29	2631,15
794,68	2670,94
795,07	2663,92
795,47	2681,08
795,86	2602,68
796,26	2622,18
796,65	2666,26
797,04	2640,90
797,44	2601,90
797,83	2617,50
798,22	2644,81
798,62	2721,26
799,01	2660,02
799,40	2677,96
799,80	2701,76
800,19	2611,26
800,58	2624,52
800,97	2664,70
801,37	2669,38
801,76	2665,09
802,15	2654,17
802,55	2625,30
802,94	2617,89
803,33	3877,10
803,72	2789,14
804,12	2647,15
804,51	2679,52
804,90	2684,98
805,29	2655,73
805,69	2610,48
806,08	2629,20
806,47	2613,99
806,86	2693,96
807,26	2636,22
807,65	2613,21
808,04	2632,71
808,43	2668,99
808,82	2655,34
809,22	2653,78
809,61	2644,42
810,00	2675,62
810,39	2693,18
810,78	2635,05
811,17	2662,36
811,57	2706,83
811,96	2615,55
812,35	2601,90
812,74	2683,42
813,13	2615,16
813,52	2601,51
813,91	2597,99
814,30	2606,19
814,70	2680,30
815,09	2635,05
815,48	2617,50
815,87	2700,20
816,26	2630,76
816,65	2733,36
817,04	2621,40
817,43	2647,93
817,82	2651,05
818,21	2684,98
818,60	2610,48
819,00	2659,24
819,39	2645,59
819,78	2615,16
820,17	2650,66
820,56	2602,68
820,95	2619,45
821,34	2646,37
821,73	2600,73
822,12	2606,97
822,51	2675,62
822,90	2700,59
823,29	2626,86
823,68	2701,37
824,07	2658,46
824,46	2656,12
824,85	2603,85
825,24	2635,05
825,63	2661,19
826,02	2710,34
826,41	2656,12
826,80	2635,83
827,18	2612,04
827,57	2678,74
827,96	2697,47
828,35	2649,49
828,74	2605,02
829,13	2640,12
829,52	2700,59
829,91	2692,79
830,30	2631,93
830,69	2607,36
831,08	2644,42
831,47	2646,37
831,85	2679,52
832,24	2597,21
832,63	2625,30
833,02	2606,19
833,41	2664,31
833,80	2705,66
834,19	2696,69
834,57	2608,53
834,96	2613,60
835,35	2628,81
835,74	2659,63
836,13	2681,47
836,52	2710,34
836,90	2640,12
837,29	2688,11
837,68	2660,02
838,07	2646,76
838,46	2666,26
838,84	2649,88
839,23	2670,94
839,62	2718,92
840,01	2660,80
840,40	2618,67
840,78	2631,93
841,17	2711,12
841,56	2626,08
841,95	2667,43
842,33	2642,46
842,72	2657,29
843,11	2624,13
843,50	2602,68
843,88	2651,05
844,27	2695,91
844,66	2622,18
845,04	2667,82
845,43	2635,44
845,82	2648,32
846,20	2621,01
846,59	2627,25
846,98	2631,54
847,37	2684,59
847,75	2679,13
848,14	2749,74
848,53	2697,08
848,91	2704,88
849,30	2705,27
849,68	2636,61
850,07	2713,07
850,46	2655,34
850,84	2665,87
851,23	2668,21
851,62	2646,76
852,00	2655,73
852,39	2619,06
852,77	2639,34
853,16	2625,30
853,55	2646,76
853,93	2631,93
854,32	2631,15
854,70	2667,43
855,09	2624,91
855,47	2637,39
855,86	2650,66
856,25	2648,32
856,63	2681,08
857,02	2664,31
857,40	2670,55
857,79	2643,25
858,17	2646,76
858,56	2639,73
858,94	2600,34
859,33	2688,89
859,71	2613,99
860,10	2634,66
860,48	2614,38
860,87	2632,32
861,25	2646,76
861,64	2684,59
862,02	2641,29
862,41	2752,08
862,79	2672,50
863,18	2675,62
863,56	2647,93
863,95	2717,36
864,33	2625,69
864,71	2642,46
865,10	2640,90
865,48	2635,83
865,87	2657,68
866,25	2646,76
866,64	2666,26
867,02	2660,02
867,40	2624,52
867,79	2626,86
868,17	2670,55
868,56	2644,03
868,94	2594,48
869,32	2629,59
869,71	2653,00
870,09	2726,72
870,47	2634,27
870,86	2668,21
871,24	2660,80
871,62	2631,54
872,01	2650,66
872,39	2638,17
872,77	2676,79
873,16	2691,62
873,54	2734,53
873,92	2662,75
874,31	2615,55
874,69	2643,64
875,07	2654,17
875,46	2642,46
875,84	2738,82
876,22	2659,24
876,60	2628,81
876,99	2631,54
877,37	2669,38
877,75	2638,17
878,14	2630,37
878,52	2621,01
878,90	2680,69
879,28	2635,83
879,66	2630,37
880,05	2629,59
880,43	2614,77
880,81	2630,76
881,19	2633,88
881,58	2625,69
881,96	2652,22
882,34	2708,00
882,72	2652,22
883,10	2691,23
883,49	2643,24
883,87	2627,25
884,25	2672,11
884,63	2656,12
885,01	2606,19
885,39	2650,66
885,78	2623,74
886,16	2651,83
886,54	2683,42
886,92	2668,21
887,30	2669,38
887,68	2622,18
888,06	2639,34
888,44	2633,49
888,83	2629,20
889,21	2666,26
889,59	2648,32
889,97	2613,60
890,35	2722,43
890,73	2631,54
891,11	2749,35
891,49	2613,60
891,87	2639,34
892,25	2648,71
892,63	2736,48
893,01	2626,47
893,39	2654,17
893,77	2637,39
894,16	2683,42
894,54	2602,29
894,92	2649,49
895,30	2638,56
895,68	2624,13
896,06	2708,39
896,44	2672,11
896,82	2633,10
897,20	2640,12
897,58	2645,20
897,96	2618,28
898,34	2624,52
898,72	2597,21
899,10	2685,76
899,47	2626,08
899,85	2684,20
900,23	2616,72
900,61	2681,47
900,99	2686,54
901,37	2654,56
901,75	2638,56
902,13	2706,44
902,51	2637,00
902,89	2634,27
903,27	2626,47
903,65	2656,90
904,03	2591,75
904,40	2665,48
904,78	2703,32
905,16	2638,95
905,54	2636,61
905,92	2638,17
906,30	2615,16
906,68	2628,42
907,06	2665,48
907,43	2658,46
907,81	2642,46
908,19	2625,69
908,57	2617,11
908,95	2633,10
909,33	2654,95
909,70	2656,12
910,08	2681,47
910,46	2648,32
910,84	2686,54
911,22	2677,96
911,59	2684,20
911,97	2653,78
912,35	2658,46
912,73	2634,66
913,11	2628,81
913,48	2640,51
913,86	2620,62
914,24	2674,84
914,62	2656,12
914,99	2660,80
915,37	2636,22
915,75	2679,52
916,13	2637,78
916,50	2736,09
916,88	2669,77
917,26	2706,44
917,63	2649,10
918,01	2678,35
918,39	2640,90
918,77	2644,42
919,14	2695,52
919,52	2678,74
919,90	2615,94
920,27	2651,83
920,65	2725,94
921,03	2629,59
921,40	2612,82
921,78	2613,60
922,16	2690,06
922,53	2620,62
922,91	2604,24
923,28	2614,77
923,66	2706,05
924,04	2641,68
924,41	2625,69
924,79	2653,39
925,17	2633,49
925,54	2590,19
925,92	2624,13
926,29	2611,26
926,67	2634,66
927,05	2674,45
927,42	2666,65
927,80	2677,18
928,17	2651,44
928,55	2700,20
928,92	2638,17
929,30	2626,47
929,67	2679,13
930,05	2649,49
930,43	2656,90
930,80	2687,72
931,18	2626,08
931,55	2674,06
931,93	2681,86
932,30	2793,82
932,68	2629,20
933,05	2641,29
933,43	2616,33
933,80	2633,49
934,18	2673,28
934,55	2668,60
934,92	2739,21
935,30	2646,76
935,67	2614,38
936,05	2707,61
936,42	2625,69
936,80	2616,72
937,17	2604,24
937,55	2616,72
937,92	2703,32
938,29	2636,61
938,67	2655,73
939,04	2691,62
939,42	2683,03
939,79	2665,09
940,16	2634,27
940,54	2689,28
940,91	2637,39
941,29	2578,49
941,66	2624,91
942,03	2642,85
942,41	2655,73
942,78	2600,34
943,15	2670,16
943,53	2632,32
943,90	2607,75
944,27	2596,04
944,65	2626,86
945,02	2597,99
945,39	2638,95
945,77	2656,12
946,14	2661,97
946,51	2633,49
946,89	2607,36
947,26	2629,20
947,63	2654,56
948,01	2648,71
948,38	2624,91
948,75	2651,83
949,12	2700,59
949,50	2715,41
949,87	2654,56
950,24	2620,62
950,61	2668,99
950,99	2668,60
951,36	2642,46
951,73	2594,87
952,10	2596,82
952,48	2666,65
952,85	2648,71
953,22	2640,51
953,59	2623,74
953,96	2745,84
954,34	2628,42
954,71	2605,80
955,08	2687,33
955,45	2657,29
955,82	2710,34
956,20	2652,61
956,57	2605,41
956,94	2602,29
957,31	2654,56
957,68	2621,40
958,05	2613,21
958,42	2631,15
958,80	2650,66
959,17	2670,55
959,54	2682,25
959,91	2640,90
960,28	2663,53
960,65	2661,19
961,02	2636,22
961,39	2683,03
961,76	2655,73
962,14	2684,20
962,51	2639,73
962,88	2640,12
963,25	2643,24
963,62	2665,09
963,99	2639,34
964,36	2627,25
964,73	2638,17
965,10	2649,88
965,47	2611,65
965,84	2667,04
966,21	2637,78
966,58	2701,76
966,95	2612,43
967,32	2623,35
967,69	2673,28
968,06	2667,82
968,43	2618,28
968,80	2704,10
969,17	2605,80
969,54	2668,99
969,91	2670,55
970,28	2645,20
970,65	2645,98
971,02	2595,65
971,39	2607,75
971,76	2620,23
972,13	2631,54
972,50	2670,94
972,87	2680,30
973,24	2618,67
973,61	2626,86
973,98	2656,51
974,34	2643,64
974,71	2698,25
975,08	2598,77
975,45	2664,70
975,82	2635,05
976,19	2644,03
976,56	2688,11
976,93	2653,78
977,30	2667,82
977,66	2613,60
978,03	2652,61
978,40	2620,23
978,77	2662,36
979,14	2612,04
979,51	2649,49
979,88	2642,46
980,24	2687,72
980,61	2664,31
980,98	2622,96
981,35	2663,92
981,72	2656,12
982,08	2668,60
982,45	2631,54
982,82	2675,62
983,19	2627,64
983,56	2674,45
983,92	2705,66
984,29	2640,12
984,66	2624,52
985,03	2668,21
985,39	2701,37
985,76	2681,86
986,13	2632,71
986,50	2645,59
986,86	2642,85
987,23	2596,43
987,60	2616,33
987,97	2684,98
988,33	2657,29
988,70	2629,20
989,07	2655,73
989,43	2643,64
989,80	2598,38
990,17	2606,97
990,53	2620,23
990,90	2715,80
991,27	2617,11
991,63	2627,64
992,00	2636,61
992,37	2667,43
992,73	2654,17
993,10	2622,96
993,47	2598,38
993,83	2649,10
994,20	2660,80
994,57	2684,20
994,93	2681,47
995,30	2704,49
995,66	2656,12
996,03	2635,44
996,40	2629,20
996,76	2638,17
997,13	2649,10
997,49	2641,29
997,86	2609,31
998,23	2659,24
998,59	2629,98
998,96	2596,04
999,32	2634,66
999,69	2632,71
1000,05	2619,45
1000,42	2627,25
1000,78	2602,68
1001,15	2636,61
1001,51	2662,36
1001,88	2637,39
1002,24	2647,54
1002,61	2664,31
1002,97	2716,19
1003,34	2656,51
1003,70	2597,21
1004,07	2715,80
1004,43	2648,32
1004,80	2645,59
1005,16	2673,28
1005,53	2720,87
1005,89	2603,46
1006,26	2591,75
1006,62	2605,41
1006,99	2673,67
1007,35	2643,64
1007,72	2668,60
1008,08	2620,62
1008,44	2640,51
1008,81	2592,92
1009,17	2623,74
1009,54	2631,54
1009,90	2606,97
1010,26	2635,44
1010,63	2646,76
1010,99	2651,05
1011,36	2622,57
1011,72	2637,00
1012,08	2637,39
1012,45	2641,29
1012,81	2654,17
1013,17	2670,16
1013,54	2622,96
1013,90	2635,44
1014,26	2606,97
1014,63	2632,32
1014,99	2629,20
1015,35	2638,17
1015,72	2663,53
1016,08	2597,21
1016,44	2658,07
1016,81	2685,37
1017,17	2617,50
1017,53	2632,71
1017,90	2692,40
1018,26	2635,44
1018,62	2617,89
1018,98	2616,33
1019,35	2648,32
1019,71	2611,65
1020,07	2710,73
1020,43	2639,34
1020,80	2592,53
1021,16	2651,83
1021,52	2656,12
1021,88	2633,88
1022,25	2644,81
1022,61	2634,66
1022,97	2643,25
1023,33	2654,95
1023,70	2649,49
1024,06	2627,64
1024,42	2688,89
1024,78	2610,48
1025,14	2625,30
1025,50	2623,35
1025,87	2668,99
1026,23	2617,50
1026,59	2634,66
1026,95	2611,65
1027,31	2601,51
1027,67	2640,12
1028,04	2619,06
1028,40	2642,85
1028,76	2663,14
1029,12	2596,82
1029,48	2630,37
1029,84	2620,62
1030,20	2624,52
1030,56	2620,23
1030,92	2658,85
1031,29	2639,34
1031,65	2628,42
1032,01	2627,64
1032,37	2620,23
1032,73	2694,74
1033,09	2679,91
1033,45	2672,89
1033,81	2608,92
1034,17	2633,88
1034,53	2607,75
1034,89	2591,36
1035,25	2591,36
1035,61	2591,36
>>>>>End Processed Spectral Data<<<<<
