SpectraSuite Data File
++++++++++++++++++++++++++++++++++++
Date: Tue May 29 13:10:41 EEST 2018
User: CanSEE
Dark Spectrum Present: No
Reference Spectrum Present: No
Number of Sampled Component Spectra: 1
Spectrometers: MAYP11278
Integration Time (usec): 230000 (MAYP11278)
Spectra Averaged: 1 (MAYP11278)
Boxcar Smoothing: 0 (MAYP11278)
Correct for Electrical Dark: No (MAYP11278)
Strobe/Lamp Enabled: No (MAYP11278)
Correct for Detector Non-linearity: No (MAYP11278)
Correct for Stray Light: No (MAYP11278)
Number of Pixels in Processed Spectrum: 2068
>>>>>Begin Processed Spectral Data<<<<<
187.82	2337.00
188.30	2229.00
188.78	2212.00
189.26	2205.00
189.73	3165.00
190.21	3317.00
190.69	3362.00
191.17	3386.00
191.64	3483.00
192.12	3406.00
192.60	3398.00
193.07	3377.00
193.55	3435.00
194.03	3395.00
194.51	3436.00
194.98	3387.00
195.46	3431.00
195.94	3420.00
196.42	3415.00
196.89	3511.00
197.37	3443.00
197.85	3409.00
198.32	3379.00
198.80	3387.00
199.28	3447.00
199.76	3439.00
200.23	3397.00
200.71	3420.00
201.19	3429.00
201.66	3450.00
202.14	3431.00
202.62	3361.00
203.09	3417.00
203.57	3366.00
204.05	3455.00
204.53	3482.00
205.00	3411.00
205.48	3391.00
205.96	3504.00
206.43	3396.00
206.91	3461.00
207.39	3523.00
207.86	3397.00
208.34	3484.00
208.82	3415.00
209.29	3451.00
209.77	3468.00
210.25	3435.00
210.72	3429.00
211.20	3459.00
211.68	3431.00
212.15	3396.00
212.63	3478.00
213.11	3443.00
213.58	3375.00
214.06	3477.00
214.53	3398.00
215.01	3516.00
215.49	3461.00
215.96	3485.00
216.44	3472.00
216.92	3465.00
217.39	3437.00
217.87	3417.00
218.35	3451.00
218.82	3349.00
219.30	3439.00
219.77	3362.00
220.25	3433.00
220.73	3543.00
221.20	3384.00
221.68	3470.00
222.15	3401.00
222.63	3463.00
223.11	3429.00
223.58	3480.00
224.06	3459.00
224.53	3410.00
225.01	3410.00
225.49	3421.00
225.96	3360.00
226.44	3413.00
226.91	3459.00
227.39	3419.00
227.87	3463.00
228.34	3441.00
228.82	3459.00
229.29	3405.00
229.77	3429.00
230.24	3427.00
230.72	3452.00
231.20	3508.00
231.67	3449.00
232.15	3442.00
232.62	3379.00
233.10	3443.00
233.57	3459.00
234.05	3624.00
234.53	3452.00
235.00	3361.00
235.48	3455.00
235.95	3415.00
236.43	3480.00
236.90	3508.00
237.38	3403.00
237.85	3458.00
238.33	3421.00
238.80	3421.00
239.28	3407.00
239.75	3387.00
240.23	3459.00
240.71	3526.00
241.18	3451.00
241.66	3415.00
242.13	3478.00
242.61	3513.00
243.08	3395.00
243.56	3462.00
244.03	3475.00
244.51	3502.00
244.98	3435.00
245.46	3505.00
245.93	5187.00
246.41	3354.00
246.88	3448.00
247.36	3464.00
247.83	3439.00
248.31	3462.00
248.78	3373.00
249.26	3465.00
249.73	3467.00
250.21	3478.00
250.68	3518.00
251.16	3449.00
251.63	3531.00
252.10	3508.00
252.58	3422.00
253.05	3518.00
253.53	3473.00
254.00	3431.00
254.48	3478.00
254.95	3457.00
255.43	3486.00
255.90	3402.00
256.38	3469.00
256.85	3502.00
257.33	3469.00
257.80	3589.00
258.27	3449.00
258.75	3434.00
259.22	3443.00
259.70	3484.00
260.17	3510.00
260.65	3403.00
261.12	3432.00
261.59	3481.00
262.07	3431.00
262.54	3507.00
263.02	3441.00
263.49	3429.00
263.97	3502.00
264.44	3480.00
264.91	3419.00
265.39	3468.00
265.86	3458.00
266.34	3474.00
266.81	3457.00
267.28	3447.00
267.76	3460.00
268.23	3463.00
268.71	3346.00
269.18	3382.00
269.65	3440.00
270.13	3497.00
270.60	3457.00
271.08	3441.00
271.55	3470.00
272.02	3420.00
272.50	3455.00
272.97	3389.00
273.44	3443.00
273.92	3577.00
274.39	3454.00
274.87	3429.00
275.34	3402.00
275.81	3407.00
276.29	3443.00
276.76	3441.00
277.23	3369.00
277.71	3398.00
278.18	3392.00
278.65	3494.00
279.13	3383.00
279.60	3426.00
280.07	3659.00
280.55	3669.00
281.02	3718.00
281.50	3520.00
281.97	3565.00
282.44	3507.00
282.91	3509.00
283.39	3503.00
283.86	3456.00
284.33	3433.00
284.81	3517.00
285.28	3476.00
285.75	3485.00
286.23	3530.00
286.70	3439.00
287.17	3475.00
287.65	3547.00
288.12	3429.00
288.59	3516.00
289.07	3407.00
289.54	3557.00
290.01	3462.00
290.48	3485.00
290.96	3470.00
291.43	3493.00
291.90	3508.00
292.38	3441.00
292.85	3510.00
293.32	3439.00
293.79	3513.00
294.27	3467.00
294.74	3449.00
295.21	3490.00
295.69	3484.00
296.16	3527.00
296.63	3534.00
297.10	3521.00
297.58	3509.00
298.05	3497.00
298.52	3485.00
298.99	3513.00
299.47	3447.00
299.94	3454.00
300.41	3461.00
300.88	3498.00
301.36	3505.00
301.83	3491.00
302.30	3421.00
302.77	3512.00
303.25	3509.00
303.72	3428.00
304.19	3445.00
304.66	3417.00
305.13	3455.00
305.61	3497.00
306.08	3478.00
306.55	3516.00
307.02	3469.00
307.49	3438.00
307.97	3494.00
308.44	3463.00
308.91	3514.00
309.38	3543.00
309.86	3460.00
310.33	3511.00
310.80	3489.00
311.27	3439.00
311.74	3502.00
312.21	3505.00
312.69	3569.00
313.16	3457.00
313.63	3480.00
314.10	3533.00
314.57	3470.00
315.05	3482.00
315.52	3514.00
315.99	3501.00
316.46	3501.00
316.93	3530.00
317.40	3522.00
317.88	3596.00
318.35	3507.00
318.82	3485.00
319.29	3419.00
319.76	3514.00
320.23	3535.00
320.70	3546.00
321.18	3453.00
321.65	3420.00
322.12	3484.00
322.59	3541.00
323.06	3451.00
323.53	3623.00
324.00	3433.00
324.48	3535.00
324.95	3520.00
325.42	3469.00
325.89	3508.00
326.36	3472.00
326.83	3523.00
327.30	3516.00
327.77	3487.00
328.24	3540.00
328.72	3468.00
329.19	3467.00
329.66	3484.00
330.13	3490.00
330.60	3556.00
331.07	3511.00
331.54	3585.00
332.01	3467.00
332.48	3579.00
332.95	3519.00
333.43	3531.00
333.90	3588.00
334.37	3496.00
334.84	3535.00
335.31	3688.00
335.78	3461.00
336.25	3494.00
336.72	3500.00
337.19	3508.00
337.66	3477.00
338.13	3511.00
338.60	3570.00
339.07	3510.00
339.54	3468.00
340.01	3437.00
340.49	3460.00
340.96	3531.00
341.43	3580.00
341.90	3491.00
342.37	3515.00
342.84	3563.00
343.31	3525.00
343.78	3485.00
344.25	3496.00
344.72	3525.00
345.19	3539.00
345.66	3515.00
346.13	3477.00
346.60	3499.00
347.07	3587.00
347.54	3475.00
348.01	3581.00
348.48	3486.00
348.95	3464.00
349.42	3519.00
349.89	3544.00
350.36	3493.00
350.83	3494.00
351.30	3555.00
351.77	3605.00
352.24	3530.00
352.71	3496.00
353.18	3506.00
353.65	3552.00
354.12	3543.00
354.59	3561.00
355.06	3562.00
355.53	3574.00
356.00	3536.00
356.47	3627.00
356.94	3461.00
357.41	3684.00
357.88	3522.00
358.35	3489.00
358.82	3453.00
359.28	3501.00
359.75	3484.00
360.22	3551.00
360.69	3568.00
361.16	3520.00
361.63	3517.00
362.10	3534.00
362.57	3504.00
363.04	3521.00
363.51	3620.00
363.98	3578.00
364.45	3510.00
364.92	3544.00
365.39	3505.00
365.86	3444.00
366.32	3524.00
366.79	3537.00
367.26	4695.00
367.73	3829.00
368.20	3476.00
368.67	3565.00
369.14	3428.00
369.61	3569.00
370.08	3568.00
370.55	3500.00
371.02	4317.00
371.48	3550.00
371.95	3511.00
372.42	3497.00
372.89	3549.00
373.36	3540.00
373.83	3477.00
374.30	3497.00
374.77	3534.00
375.23	3478.00
375.70	3570.00
376.17	3502.00
376.64	3523.00
377.11	3495.00
377.58	3532.00
378.05	3551.00
378.51	3490.00
378.98	3566.00
379.45	3482.00
379.92	3536.00
380.39	3695.00
380.86	3540.00
381.33	3606.00
381.79	3561.00
382.26	3485.00
382.73	3526.00
383.20	3513.00
383.67	3571.00
384.14	3523.00
384.60	3774.00
385.07	3506.00
385.54	3524.00
386.01	3497.00
386.48	3611.00
386.94	3513.00
387.41	3441.00
387.88	3525.00
388.35	3509.00
388.82	3588.00
389.28	3496.00
389.75	3560.00
390.22	3532.00
390.69	3546.00
391.16	3507.00
391.62	3501.00
392.09	3506.00
392.56	3499.00
393.03	3510.00
393.50	3648.00
393.96	3500.00
394.43	3531.00
394.90	3473.00
395.37	3559.00
395.83	3703.00
396.30	3457.00
396.77	3605.00
397.24	3495.00
397.70	3469.00
398.17	3477.00
398.64	3529.00
399.11	3501.00
399.57	3525.00
400.04	3427.00
400.51	3489.00
400.98	3514.00
401.44	3559.00
401.91	3537.00
402.38	3499.00
402.84	3499.00
403.31	3578.00
403.78	3547.00
404.25	3602.00
404.71	3606.00
405.18	3545.00
405.65	3506.00
406.12	3563.00
406.58	3551.00
407.05	3563.00
407.52	3541.00
407.98	4087.00
408.45	3538.00
408.92	3463.00
409.38	3579.00
409.85	3520.00
410.32	3628.00
410.78	3479.00
411.25	3610.00
411.72	3527.00
412.18	3449.00
412.65	3579.00
413.12	3547.00
413.59	3591.00
414.05	3539.00
414.52	3615.00
414.98	3514.00
415.45	3650.00
415.92	3565.00
416.38	3586.00
416.85	3668.00
417.32	3579.00
417.78	3586.00
418.25	3595.00
418.72	3605.00
419.18	3612.00
419.65	3516.00
420.12	3631.00
420.58	3521.00
421.05	3602.00
421.51	3575.00
421.98	3610.00
422.45	3605.00
422.91	3613.00
423.38	3613.00
423.85	3657.00
424.31	3601.00
424.78	3636.00
425.24	3614.00
425.71	3680.00
426.18	3601.00
426.64	3636.00
427.11	3658.00
427.57	3649.00
428.04	3593.00
428.51	3633.00
428.97	3638.00
429.44	3567.00
429.90	3627.00
430.37	3737.00
430.83	3591.00
431.30	3570.00
431.77	3706.00
432.23	3684.00
432.70	3642.00
433.16	3598.00
433.63	3673.00
434.09	3596.00
434.56	3667.00
435.03	3596.00
435.49	3681.00
435.96	3659.00
436.42	3622.00
436.89	3708.00
437.35	3677.00
437.82	3686.00
438.28	3621.00
438.75	3648.00
439.21	3835.00
439.68	3692.00
440.14	3704.00
440.61	3700.00
441.07	3653.00
441.54	3694.00
442.00	3812.00
442.47	3654.00
442.94	3708.00
443.40	3683.00
443.87	3626.00
444.33	3748.00
444.80	3744.00
445.26	3716.00
445.73	3712.00
446.19	3700.00
446.65	3698.00
447.12	3721.00
447.58	3695.00
448.05	3715.00
448.51	3761.00
448.98	3776.00
449.44	3727.00
449.91	3679.00
450.37	3757.00
450.84	3705.00
451.30	3725.00
451.77	3822.00
452.23	3689.00
452.70	3759.00
453.16	3682.00
453.62	3719.00
454.09	3741.00
454.55	3735.00
455.02	3731.00
455.48	3728.00
455.95	3752.00
456.41	3713.00
456.88	3806.00
457.34	3713.00
457.80	3740.00
458.27	3680.00
458.73	3707.00
459.20	3738.00
459.66	3750.00
460.13	3683.00
460.59	3643.00
461.05	3750.00
461.52	3739.00
461.98	3678.00
462.45	3685.00
462.91	3747.00
463.37	3687.00
463.84	3680.00
464.30	3671.00
464.76	3628.00
465.23	3698.00
465.69	3710.00
466.16	3656.00
466.62	3693.00
467.08	3651.00
467.55	3639.00
468.01	3649.00
468.48	3666.00
468.94	3624.00
469.40	3622.00
469.87	3613.00
470.33	3620.00
470.79	3624.00
471.26	3601.00
471.72	3643.00
472.18	3610.00
472.65	3662.00
473.11	3689.00
473.57	3637.00
474.04	3607.00
474.50	3624.00
474.96	3579.00
475.43	3606.00
475.89	3636.00
476.35	3634.00
476.82	3637.00
477.28	3639.00
477.74	3639.00
478.21	3637.00
478.67	3651.00
479.13	3613.00
479.59	3706.00
480.06	3653.00
480.52	3652.00
480.98	3601.00
481.45	3659.00
481.91	3584.00
482.37	3582.00
482.84	3588.00
483.30	3561.00
483.76	3570.00
484.22	3685.00
484.69	3615.00
485.15	3583.00
485.61	3485.00
486.07	3551.00
486.54	3483.00
487.00	3600.00
487.46	3549.00
487.92	3589.00
488.39	3576.00
488.85	3594.00
489.31	3601.00
489.77	3665.00
490.24	3571.00
490.70	3624.00
491.16	3545.00
491.62	3607.00
492.09	3575.00
492.55	3650.00
493.01	3615.00
493.47	3658.00
493.94	3663.00
494.40	3602.00
494.86	3608.00
495.32	3599.00
495.78	3663.00
496.25	3623.00
496.71	3631.00
497.17	3748.00
497.63	3683.00
498.09	3602.00
498.56	3695.00
499.02	3632.00
499.48	3781.00
499.94	3673.00
500.40	3635.00
500.87	3656.00
501.33	3640.00
501.79	3732.00
502.25	3696.00
502.71	3951.00
503.17	3701.00
503.64	3727.00
504.10	3693.00
504.56	3742.00
505.02	3776.00
505.48	3736.00
505.94	3786.00
506.40	3814.00
506.87	3786.00
507.33	3786.00
507.79	3881.00
508.25	3802.00
508.71	3861.00
509.17	3837.00
509.63	3810.00
510.10	3868.00
510.56	3851.00
511.02	4016.00
511.48	4031.00
511.94	4024.00
512.40	3963.00
512.86	3965.00
513.32	4077.00
513.78	3960.00
514.25	4076.00
514.71	4717.00
515.17	4019.00
515.63	4100.00
516.09	4160.00
516.55	4060.00
517.01	4176.00
517.47	4174.00
517.93	4175.00
518.39	4344.00
518.85	4267.00
519.32	4273.00
519.78	4350.00
520.24	4333.00
520.70	4479.00
521.16	4480.00
521.62	4477.00
522.08	4495.00
522.54	4527.00
523.00	4671.00
523.46	4693.00
523.92	4653.00
524.38	4877.00
524.84	4760.00
525.30	4813.00
525.76	4778.00
526.22	4718.00
526.68	4703.00
527.14	4744.00
527.60	4828.00
528.06	4951.00
528.52	5010.00
528.98	5030.00
529.44	4975.00
529.90	5036.00
530.36	5102.00
530.82	5053.00
531.28	5221.00
531.74	5125.00
532.20	5055.00
532.66	5067.00
533.12	5170.00
533.58	5148.00
534.04	5108.00
534.50	5153.00
534.96	5215.00
535.42	5366.00
535.88	5281.00
536.34	5324.00
536.80	5216.00
537.26	5341.00
537.72	5345.00
538.18	5346.00
538.64	5400.00
539.10	5353.00
539.56	5553.00
540.02	5273.00
540.48	5322.00
540.94	5335.00
541.40	5329.00
541.86	5433.00
542.32	5439.00
542.78	5347.00
543.24	5530.00
543.69	5422.00
544.15	5572.00
544.61	5503.00
545.07	5471.00
545.53	5455.00
545.99	5495.00
546.45	5513.00
546.91	5499.00
547.37	5527.00
547.83	5495.00
548.29	5481.00
548.74	5553.00
549.20	5535.00
549.66	5705.00
550.12	5514.00
550.58	5485.00
551.04	5579.00
551.50	5579.00
551.96	5678.00
552.42	5564.00
552.87	5561.00
553.33	5575.00
553.79	5611.00
554.25	5536.00
554.71	5667.00
555.17	5662.00
555.63	5698.00
556.08	5551.00
556.54	5628.00
557.00	5443.00
557.46	5574.00
557.92	5627.00
558.38	5477.00
558.83	5426.00
559.29	5390.00
559.75	5443.00
560.21	5437.00
560.67	5544.00
561.13	5433.00
561.58	5467.00
562.04	5463.00
562.50	5465.00
562.96	5481.00
563.42	5451.00
563.87	5339.00
564.33	5395.00
564.79	5386.00
565.25	5279.00
565.71	5252.00
566.16	5332.00
566.62	5253.00
567.08	5263.00
567.54	5284.00
568.00	5210.00
568.45	5176.00
568.91	5169.00
569.37	5173.00
569.83	5102.00
570.28	5032.00
570.74	5020.00
571.20	5025.00
571.66	5028.00
572.11	5030.00
572.57	5063.00
573.03	4965.00
573.49	4980.00
573.94	4925.00
574.40	5055.00
574.86	4911.00
575.32	4829.00
575.77	4863.00
576.23	4776.00
576.69	4856.00
577.15	4829.00
577.60	4843.00
578.06	4779.00
578.52	4805.00
578.97	4751.00
579.43	4721.00
579.89	4809.00
580.34	4771.00
580.80	4747.00
581.26	4707.00
581.72	4736.00
582.17	4745.00
582.63	4691.00
583.09	4747.00
583.54	4747.00
584.00	4708.00
584.46	4686.00
584.91	4670.00
585.37	4719.00
585.83	4591.00
586.28	4614.00
586.74	4621.00
587.20	4592.00
587.65	4705.00
588.11	4481.00
588.57	4513.00
589.02	4376.00
589.48	4398.00
589.94	4529.00
590.39	4579.00
590.85	4512.00
591.30	4477.00
591.76	4567.00
592.22	4465.00
592.67	4516.00
593.13	4545.00
593.59	4554.00
594.04	4493.00
594.50	4517.00
594.95	4551.00
595.41	4477.00
595.87	4451.00
596.32	4604.00
596.78	4551.00
597.23	4573.00
597.69	4456.00
598.15	4421.00
598.60	4463.00
599.06	4548.00
599.51	4405.00
599.97	4497.00
600.43	4503.00
600.88	4447.00
601.34	4483.00
601.79	4410.00
602.25	4632.00
602.70	4340.00
603.16	4458.00
603.61	4390.00
604.07	4401.00
604.53	4511.00
604.98	4425.00
605.44	4431.00
605.89	4376.00
606.35	4388.00
606.80	4376.00
607.26	4359.00
607.71	4347.00
608.17	4344.00
608.62	4392.00
609.08	4447.00
609.53	4356.00
609.99	4293.00
610.44	4247.00
610.90	4258.00
611.35	4220.00
611.81	4415.00
612.26	4285.00
612.72	4216.00
613.17	4353.00
613.63	4211.00
614.08	4203.00
614.54	4199.00
614.99	4151.00
615.45	4151.00
615.90	4190.00
616.36	4131.00
616.81	4119.00
617.27	4190.00
617.72	4211.00
618.18	4167.00
618.63	4117.00
619.09	4112.00
619.54	4167.00
619.99	4185.00
620.45	4196.00
620.90	4211.00
621.36	4169.00
621.81	4181.00
622.27	4185.00
622.72	4150.00
623.18	4095.00
623.63	4107.00
624.08	4187.00
624.54	4026.00
624.99	4049.00
625.45	4101.00
625.90	4059.00
626.35	4124.00
626.81	4086.00
627.26	4053.00
627.72	4082.00
628.17	4111.00
628.62	4008.00
629.08	4095.00
629.53	4067.00
629.99	4043.00
630.44	4100.00
630.89	4100.00
631.35	4091.00
631.80	4060.00
632.26	4112.00
632.71	4064.00
633.16	4036.00
633.62	3997.00
634.07	4044.00
634.52	4073.00
634.98	4043.00
635.43	4042.00
635.88	3985.00
636.34	4050.00
636.79	4034.00
637.24	3982.00
637.70	4043.00
638.15	4063.00
638.60	4027.00
639.06	3969.00
639.51	3976.00
639.96	3971.00
640.42	4000.00
640.87	4052.00
641.32	3912.00
641.78	3930.00
642.23	3919.00
642.68	3861.00
643.14	3875.00
643.59	3905.00
644.04	3872.00
644.49	3816.00
644.95	3882.00
645.40	3843.00
645.85	3806.00
646.31	3845.00
646.76	3861.00
647.21	3830.00
647.66	3824.00
648.12	3821.00
648.57	3736.00
649.02	3815.00
649.47	3775.00
649.93	3970.00
650.38	3703.00
650.83	3736.00
651.28	3733.00
651.74	3756.00
652.19	3696.00
652.64	3755.00
653.09	3700.00
653.55	3749.00
654.00	3775.00
654.45	3767.00
654.90	3667.00
655.35	3677.00
655.81	3725.00
656.26	3628.00
656.71	3651.00
657.16	3665.00
657.62	3724.00
658.07	3643.00
658.52	3671.00
658.97	3598.00
659.42	3864.00
659.88	3609.00
660.33	3720.00
660.78	3652.00
661.23	3601.00
661.68	3631.00
662.13	3595.00
662.59	3580.00
663.04	3617.00
663.49	3573.00
663.94	3598.00
664.39	3569.00
664.84	3534.00
665.30	3552.00
665.75	3525.00
666.20	3602.00
666.65	3578.00
667.10	3687.00
667.55	3610.00
668.00	3533.00
668.46	3618.00
668.91	3487.00
669.36	3675.00
669.81	3451.00
670.26	3504.00
670.71	3597.00
671.16	3530.00
671.61	3601.00
672.06	3591.00
672.52	3519.00
672.97	3520.00
673.42	3587.00
673.87	3682.00
674.32	3508.00
674.77	3531.00
675.22	3463.00
675.67	3470.00
676.12	3538.00
676.57	3511.00
677.02	3513.00
677.47	3523.00
677.93	3605.00
678.38	3475.00
678.83	3478.00
679.28	3550.00
679.73	3498.00
680.18	3499.00
680.63	3521.00
681.08	3455.00
681.53	3406.00
681.98	3525.00
682.43	3543.00
682.88	3553.00
683.33	3589.00
683.78	3556.00
684.23	3593.00
684.68	3608.00
685.13	3589.00
685.58	3573.00
686.03	3559.00
686.48	3506.00
686.93	3543.00
687.38	3504.00
687.83	3609.00
688.28	3628.00
688.73	3753.00
689.18	3698.00
689.63	3597.00
690.08	3724.00
690.53	3705.00
690.98	3729.00
691.43	3819.00
691.88	3781.00
692.33	3893.00
692.78	3896.00
693.23	3993.00
693.68	3973.00
694.13	4053.00
694.58	4087.00
695.03	4385.00
695.48	4234.00
695.93	4239.00
696.38	4443.00
696.83	4427.00
697.28	4435.00
697.72	4566.00
698.17	4543.00
698.62	4724.00
699.07	4761.00
699.52	4730.00
699.97	4811.00
700.42	4866.00
700.87	4995.00
701.32	5144.00
701.77	4983.00
702.22	5180.00
702.67	5159.00
703.11	5243.00
703.56	5367.00
704.01	5455.00
704.46	5508.00
704.91	5683.00
705.36	5633.00
705.81	5791.00
706.26	5739.00
706.70	5877.00
707.15	5855.00
707.60	5992.00
708.05	6103.00
708.50	6157.00
708.95	6220.00
709.40	6285.00
709.84	6268.00
710.29	6357.00
710.74	6400.00
711.19	6465.00
711.64	6522.00
712.09	6591.00
712.53	6644.00
712.98	6849.00
713.43	6741.00
713.88	6821.00
714.33	6905.00
714.78	6837.00
715.22	6793.00
715.67	6929.00
716.12	6843.00
716.57	6679.00
717.02	6532.00
717.46	6412.00
717.91	6483.00
718.36	6457.00
718.81	6307.00
719.26	6328.00
719.70	6489.00
720.15	6524.00
720.60	6717.00
721.05	7070.00
721.49	7257.00
721.94	7424.00
722.39	7324.00
722.84	7307.00
723.28	7008.00
723.73	7095.00
724.18	7050.00
724.63	7149.00
725.07	7221.00
725.52	7318.00
725.97	7376.00
726.42	7384.00
726.86	7546.00
727.31	7454.00
727.76	7554.00
728.21	7593.00
728.65	7651.00
729.10	7672.00
729.55	7704.00
729.99	7845.00
730.44	7898.00
730.89	8005.00
731.33	8166.00
731.78	8224.00
732.23	8441.00
732.68	8477.00
733.12	8691.00
733.57	8851.00
734.02	8847.00
734.46	9034.00
734.91	8966.00
735.36	8956.00
735.80	9188.00
736.25	9113.00
736.70	9163.00
737.14	9289.00
737.59	9336.00
738.04	9339.00
738.48	9241.00
738.93	9303.00
739.37	9313.00
739.82	9562.00
740.27	9529.00
740.71	9464.00
741.16	9652.00
741.61	9764.00
742.05	9634.00
742.50	9692.00
742.94	9695.00
743.39	9656.00
743.84	9789.00
744.28	9871.00
744.73	9867.00
745.18	9954.00
745.62	9977.00
746.07	10089.00
746.51	9831.00
746.96	9862.00
747.40	9975.00
747.85	9936.00
748.30	9934.00
748.74	9803.00
749.19	9945.00
749.63	10091.00
750.08	9978.00
750.52	9824.00
750.97	9843.00
751.42	9931.00
751.86	9974.00
752.31	9932.00
752.75	10041.00
753.20	9827.00
753.64	9866.00
754.09	9923.00
754.53	9960.00
754.98	9869.00
755.42	9944.00
755.87	9874.00
756.31	9843.00
756.76	9843.00
757.20	9796.00
757.65	9699.00
758.09	9595.00
758.54	9389.00
758.98	8572.00
759.43	7218.00
759.87	5928.00
760.32	5112.00
760.76	4995.00
761.21	5650.00
761.65	6331.00
762.10	6537.00
762.54	6293.00
762.99	6113.00
763.43	6216.00
763.88	6475.00
764.32	6751.00
764.77	7089.00
765.21	7506.00
765.66	7795.00
766.10	8090.00
766.54	8452.00
766.99	8727.00
767.43	8987.00
767.88	9109.00
768.32	9300.00
768.77	9374.00
769.21	9589.00
769.66	9561.00
770.10	9620.00
770.54	9667.00
770.99	9700.00
771.43	9693.00
771.88	9689.00
772.32	9724.00
772.76	9641.00
773.21	9691.00
773.65	9665.00
774.10	9568.00
774.54	9659.00
774.98	9628.00
775.43	9785.00
775.87	9730.00
776.31	9756.00
776.76	9835.00
777.20	9741.00
777.65	9595.00
778.09	9691.00
778.53	9581.00
778.98	9524.00
779.42	9732.00
779.86	9708.00
780.31	9641.00
780.75	9650.00
781.19	9750.00
781.64	9623.00
782.08	9717.00
782.52	9655.00
782.97	9616.00
783.41	9568.00
783.85	9541.00
784.30	9378.00
784.74	9420.00
785.18	9351.00
785.63	9367.00
786.07	9493.00
786.51	9441.00
786.95	9480.00
787.40	9341.00
787.84	9286.00
788.28	9285.00
788.73	9294.00
789.17	9136.00
789.61	9041.00
790.05	9033.00
790.50	8934.00
790.94	9040.00
791.38	9129.00
791.82	9039.00
792.27	9051.00
792.71	8963.00
793.15	9199.00
793.59	9093.00
794.04	9054.00
794.48	8985.00
794.92	8982.00
795.36	8821.00
795.81	8828.00
796.25	8718.00
796.69	8838.00
797.13	8915.00
797.57	8918.00
798.02	8941.00
798.46	9126.00
798.90	9004.00
799.34	8866.00
799.79	8939.00
800.23	8680.00
800.67	8695.00
801.11	8639.00
801.55	8705.00
801.99	8529.00
802.44	8708.00
802.88	8799.00
803.32	8703.00
803.76	8728.00
804.20	8819.00
804.64	8745.00
805.09	8777.00
805.53	8858.00
805.97	8699.00
806.41	8628.00
806.85	8682.00
807.29	8466.00
807.74	8543.00
808.18	8391.00
808.62	8517.00
809.06	8413.00
809.50	8461.00
809.94	8448.00
810.38	8453.00
810.82	8611.00
811.27	8583.00
811.71	8382.00
812.15	8169.00
812.59	8070.00
813.03	7994.00
813.47	7709.00
813.91	7479.00
814.35	7541.00
814.79	7512.00
815.23	7295.00
815.67	7243.00
816.12	7359.00
816.56	7304.00
817.00	7342.00
817.44	7395.00
817.88	7453.00
818.32	7345.00
818.76	7466.00
819.20	7326.00
819.64	7386.00
820.08	7522.00
820.52	7555.00
820.96	7660.00
821.40	7645.00
821.84	7492.00
822.28	7103.00
822.72	7093.00
823.16	7169.00
823.60	7380.00
824.04	7724.00
824.48	7853.00
824.92	7739.00
825.36	7763.00
825.80	7648.00
826.24	7616.00
826.68	7568.00
827.12	7616.00
827.56	7499.00
828.00	7565.00
828.44	7512.00
828.88	7579.00
829.32	7622.00
829.76	7624.00
830.20	7835.00
830.64	7715.00
831.08	7763.00
831.52	7578.00
831.96	7527.00
832.40	7407.00
832.84	7472.00
833.28	7557.00
833.72	7660.00
834.16	7765.00
834.60	7887.00
835.04	7883.00
835.48	8008.00
835.91	7926.00
836.35	8007.00
836.79	7829.00
837.23	7901.00
837.67	7793.00
838.11	7729.00
838.55	7882.00
838.99	7813.00
839.43	7931.00
839.87	7965.00
840.30	7981.00
840.74	8137.00
841.18	8006.00
841.62	8023.00
842.06	8079.00
842.50	8076.00
842.94	8024.00
843.38	7999.00
843.81	7905.00
844.25	7816.00
844.69	7707.00
845.13	7780.00
845.57	7789.00
846.01	7854.00
846.45	7841.00
846.88	7911.00
847.32	7993.00
847.76	7980.00
848.20	8046.00
848.64	8003.00
849.08	8000.00
849.51	7926.00
849.95	7850.00
850.39	7734.00
850.83	7848.00
851.27	7760.00
851.70	7737.00
852.14	7650.00
852.58	7624.00
853.02	7417.00
853.46	7313.00
853.89	7322.00
854.33	7329.00
854.77	7411.00
855.21	7755.00
855.65	7965.00
856.08	8082.00
856.52	7997.00
856.96	8074.00
857.40	7864.00
857.83	7767.00
858.27	7774.00
858.71	7563.00
859.15	7573.00
859.58	7652.00
860.02	7683.00
860.46	7750.00
860.89	7807.00
861.33	7853.00
861.77	7874.00
862.21	8013.00
862.64	7968.00
863.08	8001.00
863.52	7941.00
863.95	7779.00
864.39	7722.00
864.83	7479.00
865.27	7261.00
865.70	7293.00
866.14	7156.00
866.58	7221.00
867.01	7373.00
867.45	7577.00
867.89	7645.00
868.32	7800.00
868.76	7859.00
869.20	7929.00
869.63	7949.00
870.07	7870.00
870.51	7580.00
870.94	7630.00
871.38	7478.00
871.82	7426.00
872.25	7367.00
872.69	7429.00
873.13	7431.00
873.56	7499.00
874.00	7535.00
874.43	7566.00
874.87	7549.00
875.31	7694.00
875.74	7740.00
876.18	7711.00
876.61	7713.00
877.05	7665.00
877.49	7643.00
877.92	7498.00
878.36	7463.00
878.79	7374.00
879.23	7340.00
879.67	7107.00
880.10	7185.00
880.54	7200.00
880.97	7301.00
881.41	7393.00
881.84	7535.00
882.28	7574.00
882.72	7723.00
883.15	7730.00
883.59	7776.00
884.02	7749.00
884.46	7777.00
884.89	7621.00
885.33	7537.00
885.76	7353.00
886.20	7201.00
886.63	7275.00
887.07	7110.00
887.50	7184.00
887.94	7136.00
888.37	7243.00
888.81	7475.00
889.24	7241.00
889.68	7454.00
890.11	7369.00
890.55	7491.00
890.98	7560.00
891.42	7499.00
891.85	7402.00
892.29	7416.00
892.72	7199.00
893.16	7197.00
893.59	7068.00
894.03	6897.00
894.46	6729.00
894.90	6615.00
895.33	6470.00
895.77	6439.00
896.20	6367.00
896.63	6415.00
897.07	6369.00
897.50	6312.00
897.94	6444.00
898.37	6603.00
898.81	6239.00
899.24	6269.00
899.68	6483.00
900.11	6413.00
900.54	6395.00
900.98	6233.00
901.41	6306.00
901.85	6381.00
902.28	6271.00
902.71	6336.00
903.15	6489.00
903.58	6628.00
904.02	6653.00
904.45	6536.00
904.88	6586.00
905.32	6495.00
905.75	6523.00
906.18	6452.00
906.62	6453.00
907.05	6282.00
907.48	6418.00
907.92	6289.00
908.35	6334.00
908.79	6162.00
909.22	6118.00
909.65	6135.00
910.09	6121.00
910.52	6239.00
910.95	6121.00
911.38	6098.00
911.82	5961.00
912.25	6109.00
912.68	6215.00
913.12	6100.00
913.55	6101.00
913.98	6235.00
914.42	6352.00
914.85	6399.00
915.28	6230.00
915.72	6208.00
916.15	6132.00
916.58	6211.00
917.01	6013.00
917.45	6023.00
917.88	6000.00
918.31	6157.00
918.74	6282.00
919.18	6347.00
919.61	6355.00
920.04	6355.00
920.47	6501.00
920.91	6454.00
921.34	6398.00
921.77	6413.00
922.20	6492.00
922.64	6528.00
923.07	6504.00
923.50	6504.00
923.93	6280.00
924.37	6332.00
924.80	6233.00
925.23	6251.00
925.66	6181.00
926.09	5908.00
926.53	5852.00
926.96	5696.00
927.39	5694.00
927.82	5487.00
928.25	5271.00
928.69	5328.00
929.12	5255.00
929.55	5098.00
929.98	5048.00
930.41	4866.00
930.84	4733.00
931.28	4595.00
931.71	4487.00
932.14	4382.00
932.57	4342.00
933.00	4191.00
933.43	4157.00
933.86	4103.00
934.30	4041.00
934.73	4170.00
935.16	4058.00
935.59	3961.00
936.02	4000.00
936.45	4105.00
936.88	4029.00
937.31	4221.00
937.75	4195.00
938.18	4273.00
938.61	4400.00
939.04	4402.00
939.47	4371.00
939.90	4307.00
940.33	4383.00
940.76	4136.00
941.19	4177.00
941.62	4024.00
942.05	4033.00
942.48	3995.00
942.91	3893.00
943.35	3975.00
943.78	3963.00
944.21	3928.00
944.64	4036.00
945.07	4028.00
945.50	4002.00
945.93	4026.00
946.36	4126.00
946.79	4152.00
947.22	4225.00
947.65	4195.00
948.08	4078.00
948.51	4219.00
948.94	4183.00
949.37	4293.00
949.80	4152.00
950.23	4120.00
950.66	4181.00
951.09	4209.00
951.52	4075.00
951.95	4114.00
952.38	4183.00
952.81	4333.00
953.24	4338.00
953.67	4295.00
954.10	4360.00
954.53	4400.00
954.96	4365.00
955.39	4442.00
955.82	4503.00
956.25	4447.00
956.68	4580.00
957.11	4492.00
957.53	4450.00
957.96	4477.00
958.39	4399.00
958.82	4353.00
959.25	4375.00
959.68	4423.00
960.11	4480.00
960.54	4615.00
960.97	4659.00
961.40	4764.00
961.83	4730.00
962.26	4645.00
962.68	4853.00
963.11	4878.00
963.54	4864.00
963.97	4920.00
964.40	4887.00
964.83	5012.00
965.26	4981.00
965.69	4923.00
966.11	4907.00
966.54	4939.00
966.97	5068.00
967.40	5122.00
967.83	5252.00
968.26	5157.00
968.69	5128.00
969.11	5173.00
969.54	5074.00
969.97	5088.00
970.40	5235.00
970.83	5199.00
971.26	5221.00
971.68	5200.00
972.11	5199.00
972.54	5233.00
972.97	5215.00
973.40	5241.00
973.82	5223.00
974.25	5179.00
974.68	5144.00
975.11	5130.00
975.54	5023.00
975.96	5068.00
976.39	5056.00
976.82	5064.00
977.25	5048.00
977.67	5020.00
978.10	5011.00
978.53	5019.00
978.96	5174.00
979.38	5213.00
979.81	5193.00
980.24	5292.00
980.67	5340.00
981.09	5368.00
981.52	5378.00
981.95	5383.00
982.38	5412.00
982.80	5421.00
983.23	5525.00
983.66	5593.00
984.08	5449.00
984.51	5405.00
984.94	5375.00
985.37	5419.00
985.79	5393.00
986.22	5280.00
986.65	5273.00
987.07	5274.00
987.50	5258.00
987.93	5222.00
988.35	5250.00
988.78	5301.00
989.21	5235.00
989.63	5312.00
990.06	5390.00
990.49	5427.00
990.91	5580.00
991.34	5425.00
991.77	5380.00
992.19	5446.00
992.62	5457.00
993.05	5437.00
993.47	5460.00
993.90	5415.00
994.32	5366.00
994.75	5289.00
995.18	5297.00
995.60	5214.00
996.03	5075.00
996.45	5247.00
996.88	5220.00
997.31	5078.00
997.73	5179.00
998.16	5133.00
998.58	5258.00
999.01	5226.00
999.44	5184.00
999.86	5284.00
1000.29	5295.00
1000.71	5292.00
1001.14	5322.00
1001.56	5247.00
1001.99	5313.00
1002.41	5225.00
1002.84	5251.00
1003.27	5148.00
1003.69	5119.00
1004.12	5000.00
1004.54	5017.00
1004.97	5008.00
1005.39	4919.00
1005.82	4954.00
1006.24	4937.00
1006.67	4923.00
1007.09	4850.00
1007.52	4945.00
1007.94	4941.00
1008.37	5082.00
1008.79	5009.00
1009.22	5004.00
1009.64	5013.00
1010.07	5030.00
1010.49	4986.00
1010.92	4946.00
1011.34	4971.00
1011.77	4943.00
1012.19	4989.00
1012.62	4987.00
1013.04	4879.00
1013.46	4942.00
1013.89	4783.00
1014.31	4796.00
1014.74	4765.00
1015.16	4793.00
1015.59	4745.00
1016.01	4681.00
1016.44	4738.00
1016.86	5512.00
1017.28	4724.00
1017.71	4727.00
1018.13	4928.00
1018.56	4943.00
1018.98	4855.00
1019.40	4810.00
1019.83	4839.00
1020.25	4901.00
1020.68	4875.00
1021.10	4965.00
1021.52	4944.00
1021.95	5086.00
1022.37	4959.00
1022.79	4957.00
1023.22	4933.00
1023.64	4882.00
1024.07	4844.00
1024.49	4874.00
1024.91	4760.00
1025.34	4755.00
1025.76	4873.00
1026.18	4722.00
1026.61	4751.00
1027.03	4744.00
1027.45	4739.00
1027.88	4666.00
1028.30	4865.00
1028.72	4715.00
1029.15	4791.00
1029.57	4807.00
1029.99	4854.00
1030.41	4738.00
1030.84	4777.00
1031.26	4825.00
1031.68	4784.00
1032.11	4809.00
1032.53	4679.00
1032.95	4744.00
1033.37	4677.00
1033.80	4671.00
1034.22	4575.00
1034.64	4727.00
1035.06	4537.00
1035.49	4513.00
1035.91	4518.00
1036.33	4439.00
1036.75	4503.00
1037.18	4539.00
1037.60	4501.00
1038.02	4510.00
1038.44	4570.00
1038.87	4482.00
1039.29	4463.00
1039.71	4486.00
1040.13	4487.00
1040.55	4572.00
1040.98	4561.00
1041.40	4503.00
1041.82	4531.00
1042.24	4431.00
1042.66	4507.00
1043.09	4410.00
1043.51	4376.00
1043.93	4345.00
1044.35	4254.00
1044.77	4332.00
1045.20	4331.00
1045.62	4248.00
1046.04	4300.00
1046.46	4242.00
1046.88	4203.00
1047.30	4287.00
1047.72	4235.00
1048.15	4263.00
1048.57	4187.00
1048.99	4233.00
1049.41	4215.00
1049.83	4251.00
1050.25	4293.00
1050.67	4249.00
1051.09	4175.00
1051.52	4192.00
1051.94	4097.00
1052.36	4141.00
1052.78	4063.00
1053.20	4152.00
1053.62	4111.00
1054.04	4151.00
1054.46	4140.00
1054.88	4216.00
1055.30	4114.00
1055.72	4107.00
1056.14	4075.00
1056.57	4240.00
1056.99	4009.00
1057.41	4047.00
1057.83	4059.00
1058.25	3985.00
1058.67	3961.00
1059.09	3955.00
1059.51	4005.00
1059.93	3973.00
1060.35	3884.00
1060.77	3935.00
1061.19	3999.00
1061.61	3991.00
1062.03	3923.00
1062.45	3893.00
1062.87	3952.00
1063.29	3969.00
1063.71	3852.00
1064.13	3889.00
1064.55	3795.00
1064.97	3927.00
1065.39	3850.00
1065.81	3856.00
1066.23	3851.00
1066.65	3831.00
1067.07	3905.00
1067.49	3857.00
1067.91	3794.00
1068.33	3751.00
1068.75	3826.00
1069.17	3849.00
1069.59	3818.00
1070.00	3751.00
1070.42	3802.00
1070.84	3749.00
1071.26	3647.00
1071.68	3724.00
1072.10	3746.00
1072.52	3706.00
1072.94	3671.00
1073.36	3683.00
1073.78	3723.00
1074.20	3720.00
1074.62	3725.00
1075.03	3677.00
1075.45	3697.00
1075.87	3727.00
1076.29	3681.00
1076.71	3710.00
1077.13	3747.00
1077.55	3621.00
1077.97	3718.00
1078.38	3643.00
1078.80	3679.00
1079.22	3697.00
1079.64	3671.00
1080.06	3601.00
1080.48	3628.00
1080.89	3570.00
1081.31	3639.00
1081.73	3654.00
1082.15	3645.00
1082.57	3620.00
1082.99	3618.00
1083.40	3584.00
1083.82	3650.00
1084.24	3566.00
1084.66	3564.00
1085.08	3622.00
1085.49	3506.00
1085.91	3548.00
1086.33	4814.00
1086.75	3576.00
1087.17	3518.00
1087.58	3583.00
1088.00	3571.00
1088.42	3599.00
1088.84	3527.00
1089.25	3475.00
1089.67	3505.00
1090.09	3532.00
1090.51	3475.00
1090.92	3584.00
1091.34	3476.00
1091.76	3512.00
1092.18	3486.00
1092.59	3467.00
1093.01	3473.00
1093.43	3490.00
1093.84	3468.00
1094.26	3445.00
1094.68	3505.00
1095.10	3476.00
1095.51	3460.00
1095.93	3429.00
1096.35	3485.00
1096.76	3477.00
1097.18	3485.00
1097.60	3402.00
1098.01	3460.00
1098.43	3442.00
1098.85	3401.00
1099.26	3423.00
1099.68	3415.00
1100.10	3381.00
1100.51	3411.00
1100.93	3357.00
1101.35	3429.00
1101.76	3428.00
1102.18	3910.00
1102.60	3438.00
1103.01	3306.00
1103.43	3332.00
1103.84	3367.00
1104.26	3341.00
1104.68	3377.00
1105.09	3297.00
1105.51	3296.00
1105.92	3404.00
1106.34	3353.00
1106.76	3356.00
1107.17	3337.00
1107.59	3365.00
1108.00	3301.00
1108.42	3298.00
1108.83	3276.00
1109.25	3273.00
1109.67	3257.00
1110.08	3263.00
1110.50	3208.00
1110.91	3305.00
1111.33	3219.00
1111.74	3248.00
1112.16	3279.00
1112.57	3304.00
1112.99	3213.00
1113.41	3268.00
1113.82	3252.00
1114.24	3265.00
1114.65	3234.00
1115.07	3157.00
1115.48	3097.00
1115.90	2193.00
1116.31	2214.00
1116.73	2209.00
1117.14	2213.00
>>>>>End Processed Spectral Data<<<<<
