SpectraSuite Data File
++++++++++++++++++++++++++++++++++++
Date: Tue May 29 13:19:34 EEST 2018
User: CanSEE
Dark Spectrum Present: No
Reference Spectrum Present: No
Number of Sampled Component Spectra: 1
Spectrometers: MAYP11278
Integration Time (usec): 220000 (MAYP11278)
Spectra Averaged: 1 (MAYP11278)
Boxcar Smoothing: 0 (MAYP11278)
Correct for Electrical Dark: No (MAYP11278)
Strobe/Lamp Enabled: No (MAYP11278)
Correct for Detector Non-linearity: No (MAYP11278)
Correct for Stray Light: No (MAYP11278)
Number of Pixels in Processed Spectrum: 2068
>>>>>Begin Processed Spectral Data<<<<<
187.82	2346.00
188.30	2242.00
188.78	2211.00
189.26	2214.00
189.73	3434.00
190.21	3562.00
190.69	3710.00
191.17	3708.00
191.64	3766.00
192.12	3731.00
192.60	3666.00
193.07	3662.00
193.55	3692.00
194.03	3716.00
194.51	3726.00
194.98	3666.00
195.46	3719.00
195.94	3713.00
196.42	3692.00
196.89	3814.00
197.37	3658.00
197.85	3666.00
198.32	3696.00
198.80	3642.00
199.28	3694.00
199.76	3710.00
200.23	3698.00
200.71	3662.00
201.19	3700.00
201.66	3740.00
202.14	3746.00
202.62	3611.00
203.09	3704.00
203.57	3698.00
204.05	3718.00
204.53	3801.00
205.00	3682.00
205.48	3686.00
205.96	3800.00
206.43	3674.00
206.91	3686.00
207.39	3883.00
207.86	3735.00
208.34	3743.00
208.82	3698.00
209.29	3715.00
209.77	3740.00
210.25	3725.00
210.72	3696.00
211.20	3757.00
211.68	3719.00
212.15	3717.00
212.63	3792.00
213.11	3737.00
213.58	3696.00
214.06	3806.00
214.53	3744.00
215.01	3738.00
215.49	3728.00
215.96	3773.00
216.44	3753.00
216.92	3741.00
217.39	3690.00
217.87	3757.00
218.35	3795.00
218.82	3656.00
219.30	3724.00
219.77	3670.00
220.25	3720.00
220.73	3843.00
221.20	3694.00
221.68	3776.00
222.15	3668.00
222.63	3763.00
223.11	3686.00
223.58	3753.00
224.06	3715.00
224.53	3684.00
225.01	3721.00
225.49	3710.00
225.96	3715.00
226.44	3713.00
226.91	3811.00
227.39	3692.00
227.87	3726.00
228.34	3744.00
228.82	3754.00
229.29	3690.00
229.77	3732.00
230.24	3663.00
230.72	3780.00
231.20	3796.00
231.67	3734.00
232.15	3690.00
232.62	3666.00
233.10	3698.00
233.57	3743.00
234.05	3898.00
234.53	3750.00
235.00	3722.00
235.48	3710.00
235.95	3704.00
236.43	3798.00
236.90	3802.00
237.38	3708.00
237.85	3731.00
238.33	3713.00
238.80	3757.00
239.28	3718.00
239.75	3674.00
240.23	3817.00
240.71	3787.00
241.18	3710.00
241.66	3747.00
242.13	3741.00
242.61	3796.00
243.08	3668.00
243.56	3666.00
244.03	3769.00
244.51	3782.00
244.98	3721.00
245.46	3722.00
245.93	5686.00
246.41	3595.00
246.88	3739.00
247.36	3751.00
247.83	3729.00
248.31	3817.00
248.78	3638.00
249.26	3780.00
249.73	3761.00
250.21	3763.00
250.68	3816.00
251.16	3732.00
251.63	3837.00
252.10	3785.00
252.58	3706.00
253.05	3812.00
253.53	3766.00
254.00	3727.00
254.48	3777.00
254.95	3758.00
255.43	3806.00
255.90	3725.00
256.38	3806.00
256.85	3758.00
257.33	3773.00
257.80	3917.00
258.27	3758.00
258.75	3707.00
259.22	3741.00
259.70	3737.00
260.17	3846.00
260.65	3731.00
261.12	3754.00
261.59	3838.00
262.07	3698.00
262.54	3784.00
263.02	3747.00
263.49	3668.00
263.97	3801.00
264.44	3798.00
264.91	3768.00
265.39	3771.00
265.86	3732.00
266.34	3785.00
266.81	3759.00
267.28	3773.00
267.76	3792.00
268.23	3720.00
268.71	3664.00
269.18	3688.00
269.65	3660.00
270.13	3734.00
270.60	3814.00
271.08	3706.00
271.55	3753.00
272.02	3729.00
272.50	3682.00
272.97	3660.00
273.44	3765.00
273.92	3920.00
274.39	3757.00
274.87	3735.00
275.34	3729.00
275.81	3748.00
276.29	3768.00
276.76	3712.00
277.23	3602.00
277.71	3723.00
278.18	3632.00
278.65	3836.00
279.13	3676.00
279.60	3715.00
280.07	4024.00
280.55	3979.00
281.02	4016.00
281.50	3793.00
281.97	3884.00
282.44	3803.00
282.91	3803.00
283.39	3782.00
283.86	3773.00
284.33	3769.00
284.81	3848.00
285.28	3775.00
285.75	3777.00
286.23	3788.00
286.70	3730.00
287.17	3805.00
287.65	3882.00
288.12	3766.00
288.59	3756.00
289.07	3668.00
289.54	3830.00
290.01	3694.00
290.48	3779.00
290.96	3724.00
291.43	3825.00
291.90	3892.00
292.38	3753.00
292.85	3810.00
293.32	3742.00
293.79	3842.00
294.27	3779.00
294.74	3744.00
295.21	3755.00
295.69	3825.00
296.16	3874.00
296.63	3871.00
297.10	3794.00
297.58	3778.00
298.05	3828.00
298.52	3734.00
298.99	3798.00
299.47	3775.00
299.94	3825.00
300.41	3758.00
300.88	3803.00
301.36	3840.00
301.83	3822.00
302.30	3741.00
302.77	3771.00
303.25	3804.00
303.72	3735.00
304.19	3758.00
304.66	3744.00
305.13	3793.00
305.61	3766.00
306.08	3779.00
306.55	3789.00
307.02	3772.00
307.49	3710.00
307.97	3779.00
308.44	3726.00
308.91	3826.00
309.38	3809.00
309.86	3796.00
310.33	3773.00
310.80	3832.00
311.27	3773.00
311.74	3829.00
312.21	3809.00
312.69	3873.00
313.16	3735.00
313.63	3760.00
314.10	3774.00
314.57	3769.00
315.05	3740.00
315.52	3826.00
315.99	3819.00
316.46	3778.00
316.93	3801.00
317.40	3855.00
317.88	3960.00
318.35	3792.00
318.82	3791.00
319.29	3745.00
319.76	3834.00
320.23	3872.00
320.70	3836.00
321.18	3745.00
321.65	3704.00
322.12	3728.00
322.59	3836.00
323.06	3800.00
323.53	3908.00
324.00	3694.00
324.48	3811.00
324.95	3757.00
325.42	3738.00
325.89	3807.00
326.36	3794.00
326.83	3790.00
327.30	3802.00
327.77	3825.00
328.24	3803.00
328.72	3801.00
329.19	3759.00
329.66	3791.00
330.13	3771.00
330.60	3855.00
331.07	3817.00
331.54	3908.00
332.01	3743.00
332.48	3875.00
332.95	3834.00
333.43	3811.00
333.90	3856.00
334.37	3850.00
334.84	3824.00
335.31	3971.00
335.78	3745.00
336.25	3824.00
336.72	3777.00
337.19	3800.00
337.66	3748.00
338.13	3760.00
338.60	3827.00
339.07	3856.00
339.54	3755.00
340.01	3686.00
340.49	3686.00
340.96	3837.00
341.43	3841.00
341.90	3723.00
342.37	3823.00
342.84	3787.00
343.31	3777.00
343.78	3752.00
344.25	3765.00
344.72	3751.00
345.19	3740.00
345.66	3803.00
346.13	3762.00
346.60	3758.00
347.07	3856.00
347.54	3729.00
348.01	3841.00
348.48	3755.00
348.95	3710.00
349.42	3761.00
349.89	3832.00
350.36	3784.00
350.83	3734.00
351.30	3810.00
351.77	3893.00
352.24	3793.00
352.71	3769.00
353.18	3764.00
353.65	3841.00
354.12	3798.00
354.59	3813.00
355.06	3793.00
355.53	3876.00
356.00	3760.00
356.47	3857.00
356.94	3750.00
357.41	3918.00
357.88	3812.00
358.35	3739.00
358.82	3740.00
359.28	3756.00
359.75	3764.00
360.22	3844.00
360.69	3869.00
361.16	3777.00
361.63	3796.00
362.10	3745.00
362.57	3805.00
363.04	3790.00
363.51	3917.00
363.98	3824.00
364.45	3711.00
364.92	3828.00
365.39	3752.00
365.86	3725.00
366.32	3804.00
366.79	3769.00
367.26	4607.00
367.73	4127.00
368.20	3725.00
368.67	3803.00
369.14	3738.00
369.61	3840.00
370.08	3809.00
370.55	3764.00
371.02	4640.00
371.48	3814.00
371.95	3816.00
372.42	3704.00
372.89	3781.00
373.36	3816.00
373.83	3759.00
374.30	3732.00
374.77	3806.00
375.23	3723.00
375.70	3885.00
376.17	3825.00
376.64	3770.00
377.11	3720.00
377.58	3805.00
378.05	3810.00
378.51	3784.00
378.98	3788.00
379.45	3780.00
379.92	3828.00
380.39	3916.00
380.86	3785.00
381.33	3898.00
381.79	3888.00
382.26	3746.00
382.73	3787.00
383.20	3760.00
383.67	3836.00
384.14	3790.00
384.60	4026.00
385.07	3814.00
385.54	3770.00
386.01	3773.00
386.48	3869.00
386.94	3739.00
387.41	3713.00
387.88	3817.00
388.35	3838.00
388.82	3872.00
389.28	3812.00
389.75	3828.00
390.22	3843.00
390.69	3830.00
391.16	3809.00
391.62	3761.00
392.09	3828.00
392.56	3790.00
393.03	3765.00
393.50	3896.00
393.96	3819.00
394.43	3864.00
394.90	3757.00
395.37	3834.00
395.83	4002.00
396.30	3708.00
396.77	3804.00
397.24	3824.00
397.70	3759.00
398.17	3796.00
398.64	3814.00
399.11	3761.00
399.57	3846.00
400.04	3725.00
400.51	3809.00
400.98	3767.00
401.44	3810.00
401.91	3752.00
402.38	3810.00
402.84	3716.00
403.31	3904.00
403.78	3756.00
404.25	3876.00
404.71	3899.00
405.18	3884.00
405.65	3744.00
406.12	3818.00
406.58	3814.00
407.05	3850.00
407.52	3812.00
407.98	4690.00
408.45	3794.00
408.92	3746.00
409.38	3857.00
409.85	3769.00
410.32	3851.00
410.78	3772.00
411.25	3849.00
411.72	3782.00
412.18	3718.00
412.65	3806.00
413.12	3812.00
413.59	3795.00
414.05	3794.00
414.52	3882.00
414.98	3761.00
415.45	3878.00
415.92	3804.00
416.38	3776.00
416.85	3857.00
417.32	3788.00
417.78	3795.00
418.25	3747.00
418.72	3788.00
419.18	3814.00
419.65	3761.00
420.12	3846.00
420.58	3718.00
421.05	3796.00
421.51	3748.00
421.98	3798.00
422.45	3780.00
422.91	3804.00
423.38	3834.00
423.85	3826.00
424.31	3796.00
424.78	3772.00
425.24	3766.00
425.71	3840.00
426.18	3722.00
426.64	3812.00
427.11	3836.00
427.57	3826.00
428.04	3761.00
428.51	3811.00
428.97	3804.00
429.44	3784.00
429.90	3760.00
430.37	3950.00
430.83	3777.00
431.30	3771.00
431.77	3828.00
432.23	3844.00
432.70	3774.00
433.16	3792.00
433.63	3814.00
434.09	3790.00
434.56	3836.00
435.03	3750.00
435.49	3831.00
435.96	3816.00
436.42	3737.00
436.89	3814.00
437.35	3812.00
437.82	3858.00
438.28	3731.00
438.75	3775.00
439.21	3994.00
439.68	3770.00
440.14	3799.00
440.61	3839.00
441.07	3753.00
441.54	3792.00
442.00	3932.00
442.47	3714.00
442.94	3800.00
443.40	3818.00
443.87	3766.00
444.33	3880.00
444.80	3809.00
445.26	3795.00
445.73	3802.00
446.19	3826.00
446.65	3770.00
447.12	3839.00
447.58	3807.00
448.05	3790.00
448.51	3796.00
448.98	3838.00
449.44	3754.00
449.91	3752.00
450.37	3768.00
450.84	3742.00
451.30	3788.00
451.77	3836.00
452.23	3725.00
452.70	3853.00
453.16	3760.00
453.62	3732.00
454.09	3758.00
454.55	3776.00
455.02	3736.00
455.48	3766.00
455.95	3796.00
456.41	3748.00
456.88	3786.00
457.34	3725.00
457.80	3743.00
458.27	3672.00
458.73	3759.00
459.20	3786.00
459.66	3757.00
460.13	3718.00
460.59	3692.00
461.05	3818.00
461.52	3728.00
461.98	3729.00
462.45	3666.00
462.91	3747.00
463.37	3672.00
463.84	3715.00
464.30	3694.00
464.76	3658.00
465.23	3652.00
465.69	3753.00
466.16	3682.00
466.62	3684.00
467.08	3716.00
467.55	3668.00
468.01	3678.00
468.48	3646.00
468.94	3628.00
469.40	3608.00
469.87	3678.00
470.33	3692.00
470.79	3602.00
471.26	3619.00
471.72	3564.00
472.18	3628.00
472.65	3629.00
473.11	3708.00
473.57	3622.00
474.04	3572.00
474.50	3572.00
474.96	3584.00
475.43	3648.00
475.89	3632.00
476.35	3629.00
476.82	3602.00
477.28	3640.00
477.74	3636.00
478.21	3606.00
478.67	3648.00
479.13	3572.00
479.59	3684.00
480.06	3619.00
480.52	3586.00
480.98	3585.00
481.45	3592.00
481.91	3624.00
482.37	3572.00
482.84	3558.00
483.30	3562.00
483.76	3558.00
484.22	3656.00
484.69	3609.00
485.15	3580.00
485.61	3503.00
486.07	3598.00
486.54	3497.00
487.00	3583.00
487.46	3508.00
487.92	3555.00
488.39	3584.00
488.85	3580.00
489.31	3582.00
489.77	3648.00
490.24	3556.00
490.70	3557.00
491.16	3506.00
491.62	3540.00
492.09	3511.00
492.55	3612.00
493.01	3608.00
493.47	3586.00
493.94	3580.00
494.40	3567.00
494.86	3546.00
495.32	3550.00
495.78	3604.00
496.25	3554.00
496.71	3560.00
497.17	3663.00
497.63	3634.00
498.09	3536.00
498.56	3580.00
499.02	3599.00
499.48	3739.00
499.94	3588.00
500.40	3564.00
500.87	3598.00
501.33	3577.00
501.79	3614.00
502.25	3598.00
502.71	3938.00
503.17	3634.00
503.64	3610.00
504.10	3634.00
504.56	3670.00
505.02	3672.00
505.48	3622.00
505.94	3674.00
506.40	3710.00
506.87	3678.00
507.33	3690.00
507.79	3719.00
508.25	3654.00
508.71	3706.00
509.17	3664.00
509.63	3725.00
510.10	3754.00
510.56	3729.00
511.02	3844.00
511.48	3851.00
511.94	3782.00
512.40	3721.00
512.86	3846.00
513.32	3853.00
513.78	3752.00
514.25	3908.00
514.71	4621.00
515.17	3824.00
515.63	3942.00
516.09	3928.00
516.55	3952.00
517.01	4078.00
517.47	3990.00
517.93	4008.00
518.39	4222.00
518.85	4078.00
519.32	4134.00
519.78	4097.00
520.24	4124.00
520.70	4244.00
521.16	4292.00
521.62	4356.00
522.08	4352.00
522.54	4394.00
523.00	4482.00
523.46	4511.00
523.92	4466.00
524.38	4668.00
524.84	4552.00
525.30	4700.00
525.76	4684.00
526.22	4592.00
526.68	4575.00
527.14	4650.00
527.60	4732.00
528.06	4832.00
528.52	4856.00
528.98	4846.00
529.44	4778.00
529.90	4920.00
530.36	4972.00
530.82	4922.00
531.28	5083.00
531.74	5032.00
532.20	4948.00
532.66	4987.00
533.12	5064.00
533.58	5022.00
534.04	5084.00
534.50	5112.00
534.96	5134.00
535.42	5194.00
535.88	5176.00
536.34	5194.00
536.80	5112.00
537.26	5250.00
537.72	5250.00
538.18	5182.00
538.64	5320.00
539.10	5281.00
539.56	5494.00
540.02	5068.00
540.48	5297.00
540.94	5240.00
541.40	5166.00
541.86	5350.00
542.32	5328.00
542.78	5240.00
543.24	5499.00
543.69	5334.00
544.15	5472.00
544.61	5376.00
545.07	5371.00
545.53	5404.00
545.99	5452.00
546.45	5384.00
546.91	5432.00
547.37	5414.00
547.83	5401.00
548.29	5394.00
548.74	5410.00
549.20	5450.00
549.66	5560.00
550.12	5394.00
550.58	5452.00
551.04	5468.00
551.50	5547.00
551.96	5672.00
552.42	5478.00
552.87	5474.00
553.33	5500.00
553.79	5492.00
554.25	5466.00
554.71	5506.00
555.17	5509.00
555.63	5565.00
556.08	5519.00
556.54	5468.00
557.00	5352.00
557.46	5446.00
557.92	5519.00
558.38	5288.00
558.83	5362.00
559.29	5290.00
559.75	5299.00
560.21	5310.00
560.67	5321.00
561.13	5336.00
561.58	5301.00
562.04	5240.00
562.50	5214.00
562.96	5249.00
563.42	5294.00
563.87	5164.00
564.33	5100.00
564.79	5168.00
565.25	5094.00
565.71	5026.00
566.16	5106.00
566.62	5011.00
567.08	5018.00
567.54	5046.00
568.00	5008.00
568.45	4922.00
568.91	4878.00
569.37	4938.00
569.83	4836.00
570.28	4822.00
570.74	4840.00
571.20	4787.00
571.66	4774.00
572.11	4779.00
572.57	4746.00
573.03	4688.00
573.49	4648.00
573.94	4648.00
574.40	4670.00
574.86	4676.00
575.32	4554.00
575.77	4595.00
576.23	4493.00
576.69	4600.00
577.15	4510.00
577.60	4472.00
578.06	4428.00
578.52	4524.00
578.97	4479.00
579.43	4372.00
579.89	4437.00
580.34	4450.00
580.80	4412.00
581.26	4410.00
581.72	4390.00
582.17	4376.00
582.63	4356.00
583.09	4404.00
583.54	4378.00
584.00	4334.00
584.46	4462.00
584.91	4276.00
585.37	4487.00
585.83	4286.00
586.28	4265.00
586.74	4332.00
587.20	4284.00
587.65	4286.00
588.11	4156.00
588.57	4210.00
589.02	4160.00
589.48	4122.00
589.94	4210.00
590.39	4230.00
590.85	4206.00
591.30	4240.00
591.76	4279.00
592.22	4188.00
592.67	4223.00
593.13	4206.00
593.59	4212.00
594.04	4252.00
594.50	4160.00
594.95	4239.00
595.41	4160.00
595.87	4128.00
596.32	4269.00
596.78	4220.00
597.23	4220.00
597.69	4164.00
598.15	4091.00
598.60	4150.00
599.06	4232.00
599.51	4130.00
599.97	4190.00
600.43	4153.00
600.88	4178.00
601.34	4194.00
601.79	4082.00
602.25	4306.00
602.70	4102.00
603.16	4134.00
603.61	4130.00
604.07	4090.00
604.53	4162.00
604.98	4116.00
605.44	4126.00
605.89	4140.00
606.35	4066.00
606.80	4090.00
607.26	4086.00
607.71	4092.00
608.17	4106.00
608.62	4096.00
609.08	4232.00
609.53	4106.00
609.99	4003.00
610.44	4006.00
610.90	3999.00
611.35	3958.00
611.81	4091.00
612.26	4100.00
612.72	4036.00
613.17	4156.00
613.63	3920.00
614.08	3914.00
614.54	3908.00
614.99	3916.00
615.45	3903.00
615.90	3961.00
616.36	3880.00
616.81	3930.00
617.27	3964.00
617.72	3992.00
618.18	3920.00
618.63	3916.00
619.09	3930.00
619.54	3986.00
619.99	3928.00
620.45	3964.00
620.90	3956.00
621.36	3821.00
621.81	3920.00
622.27	3983.00
622.72	4030.00
623.18	3878.00
623.63	3876.00
624.08	3965.00
624.54	3852.00
624.99	3900.00
625.45	3918.00
625.90	3830.00
626.35	3879.00
626.81	3902.00
627.26	3843.00
627.72	3894.00
628.17	3962.00
628.62	3794.00
629.08	3866.00
629.53	3866.00
629.99	3853.00
630.44	3902.00
630.89	3888.00
631.35	3886.00
631.80	3874.00
632.26	3946.00
632.71	3841.00
633.16	3846.00
633.62	3812.00
634.07	3812.00
634.52	3855.00
634.98	3876.00
635.43	3854.00
635.88	3821.00
636.34	3832.00
636.79	3848.00
637.24	3801.00
637.70	3888.00
638.15	3884.00
638.60	3801.00
639.06	3800.00
639.51	3718.00
639.96	3741.00
640.42	3769.00
640.87	3878.00
641.32	3718.00
641.78	3735.00
642.23	3748.00
642.68	3688.00
643.14	3727.00
643.59	3798.00
644.04	3710.00
644.49	3666.00
644.95	3666.00
645.40	3670.00
645.85	3716.00
646.31	3698.00
646.76	3724.00
647.21	3716.00
647.66	3757.00
648.12	3676.00
648.57	3640.00
649.02	3767.00
649.47	3696.00
649.93	3916.00
650.38	3612.00
650.83	3614.00
651.28	3618.00
651.74	3666.00
652.19	3602.00
652.64	3626.00
653.09	3602.00
653.55	3614.00
654.00	3682.00
654.45	3664.00
654.90	3650.00
655.35	3575.00
655.81	3682.00
656.26	3617.00
656.71	3620.00
657.16	3668.00
657.62	3654.00
658.07	3601.00
658.52	3652.00
658.97	3596.00
659.42	3852.00
659.88	3617.00
660.33	3670.00
660.78	3642.00
661.23	3552.00
661.68	3602.00
662.13	3620.00
662.59	3540.00
663.04	3630.00
663.49	3583.00
663.94	3588.00
664.39	3594.00
664.84	3574.00
665.30	3598.00
665.75	3537.00
666.20	3618.00
666.65	3646.00
667.10	3728.00
667.55	3624.00
668.00	3550.00
668.46	3625.00
668.91	3564.00
669.36	3718.00
669.81	3497.00
670.26	3555.00
670.71	3664.00
671.16	3628.00
671.61	3674.00
672.06	3716.00
672.52	3550.00
672.97	3596.00
673.42	3664.00
673.87	3770.00
674.32	3544.00
674.77	3646.00
675.22	3500.00
675.67	3576.00
676.12	3556.00
676.57	3566.00
677.02	3556.00
677.47	3549.00
677.93	3728.00
678.38	3564.00
678.83	3576.00
679.28	3599.00
679.73	3584.00
680.18	3592.00
680.63	3596.00
681.08	3503.00
681.53	3500.00
681.98	3600.00
682.43	3588.00
682.88	3658.00
683.33	3650.00
683.78	3622.00
684.23	3690.00
684.68	3602.00
685.13	3619.00
685.58	3662.00
686.03	3570.00
686.48	3618.00
686.93	3658.00
687.38	3580.00
687.83	3690.00
688.28	3640.00
688.73	3786.00
689.18	3710.00
689.63	3686.00
690.08	3722.00
690.53	3741.00
690.98	3682.00
691.43	3805.00
691.88	3825.00
692.33	3892.00
692.78	3916.00
693.23	4038.00
693.68	4042.00
694.13	4082.00
694.58	4146.00
695.03	4422.00
695.48	4318.00
695.93	4350.00
696.38	4566.00
696.83	4604.00
697.28	4616.00
697.72	4755.00
698.17	4854.00
698.62	4988.00
699.07	5124.00
699.52	5146.00
699.97	5293.00
700.42	5421.00
700.87	5618.00
701.32	5888.00
701.77	5787.00
702.22	5942.00
702.67	6122.00
703.11	6294.00
703.56	6470.00
704.01	6569.00
704.46	6824.00
704.91	7040.00
705.36	7180.00
705.81	7290.00
706.26	7384.00
706.70	7664.00
707.15	7746.00
707.60	7953.00
708.05	8158.00
708.50	8385.00
708.95	8581.00
709.40	8770.00
709.84	8901.00
710.29	9106.00
710.74	9276.00
711.19	9420.00
711.64	9658.00
712.09	9904.00
712.53	9947.00
712.98	10292.00
713.43	10430.00
713.88	10610.00
714.33	10808.00
714.78	10953.00
715.22	11016.00
715.67	11104.00
716.12	11150.00
716.57	11084.00
717.02	10762.00
717.46	10672.00
717.91	10802.00
718.36	10946.00
718.81	10810.00
719.26	11010.00
719.70	11314.00
720.15	11516.00
720.60	12034.00
721.05	12941.00
721.49	13394.00
721.94	13874.00
722.39	13838.00
722.84	13713.00
723.28	13358.00
723.73	13412.00
724.18	13628.00
724.63	13898.00
725.07	14136.00
725.52	14418.00
725.97	14739.00
726.42	15035.00
726.86	15462.00
727.31	15249.00
727.76	15520.00
728.21	15824.00
728.65	15919.00
729.10	16148.00
729.55	16472.00
729.99	16894.00
730.44	17092.00
730.89	17456.00
731.33	17916.00
731.78	18345.00
732.23	18800.00
732.68	19150.00
733.12	19528.00
733.57	20048.00
734.02	20338.00
734.46	20814.00
734.91	20942.00
735.36	21024.00
735.80	21370.00
736.25	21616.00
736.70	21824.00
737.14	22194.00
737.59	22268.00
738.04	22483.00
738.48	22424.00
738.93	22592.00
739.37	22690.00
739.82	23462.00
740.27	23571.00
740.71	23518.00
741.16	23636.00
741.61	23809.00
742.05	23754.00
742.50	24303.00
742.94	24287.00
743.39	24585.00
743.84	24620.00
744.28	24666.00
744.73	24760.00
745.18	25102.00
745.62	25342.00
746.07	25489.00
746.51	25452.00
746.96	25462.00
747.40	25225.00
747.85	25334.00
748.30	25304.00
748.74	25442.00
749.19	25424.00
749.63	25682.00
750.08	25556.00
750.52	25776.00
750.97	25684.00
751.42	25598.00
751.86	25754.00
752.31	25724.00
752.75	25762.00
753.20	25737.00
753.64	25724.00
754.09	25784.00
754.53	26000.00
754.98	25856.00
755.42	25757.00
755.87	25956.00
756.31	25690.00
756.76	25454.00
757.20	25501.00
757.65	25080.00
758.09	24960.00
758.54	24219.00
758.98	21320.00
759.43	17132.00
759.87	12924.00
760.32	10546.00
760.76	10668.00
761.21	12570.00
761.65	14676.00
762.10	15236.00
762.54	14534.00
762.99	13948.00
763.43	14350.00
763.88	15080.00
764.32	16124.00
764.77	17526.00
765.21	18710.00
765.66	19584.00
766.10	20546.00
766.54	21686.00
766.99	22445.00
767.43	23082.00
767.88	23577.00
768.32	24134.00
768.77	24211.00
769.21	24722.00
769.66	24824.00
770.10	25138.00
770.54	25374.00
770.99	25434.00
771.43	25335.00
771.88	25354.00
772.32	25238.00
772.76	25218.00
773.21	25256.00
773.65	25114.00
774.10	24944.00
774.54	24920.00
774.98	25178.00
775.43	25235.00
775.87	25606.00
776.31	25594.00
776.76	25488.00
777.20	25494.00
777.65	25303.00
778.09	25128.00
778.53	25202.00
778.98	24958.00
779.42	24990.00
779.86	25072.00
780.31	24890.00
780.75	25087.00
781.19	25170.00
781.64	25284.00
782.08	25352.00
782.52	24930.00
782.97	24804.00
783.41	24726.00
783.85	24587.00
784.30	24396.00
784.74	24466.00
785.18	24255.00
785.63	24290.00
786.07	24257.00
786.51	24388.00
786.95	24538.00
787.40	24288.00
787.84	24346.00
788.28	24068.00
788.73	24036.00
789.17	23808.00
789.61	23380.00
790.05	23416.00
790.50	23150.00
790.94	23160.00
791.38	23255.00
791.82	23206.00
792.27	23231.00
792.71	23300.00
793.15	23590.00
793.59	23402.00
794.04	23290.00
794.48	23186.00
794.92	22858.00
795.36	22713.00
795.81	22483.00
796.25	22447.00
796.69	22584.00
797.13	22882.00
797.57	22984.00
798.02	23211.00
798.46	23265.00
798.90	23186.00
799.34	22916.00
799.79	22749.00
800.23	22557.00
800.67	22219.00
801.11	22178.00
801.55	22074.00
801.99	21925.00
802.44	22165.00
802.88	22230.00
803.32	22419.00
803.76	22376.00
804.20	22472.00
804.64	22458.00
805.09	22594.00
805.53	22536.00
805.97	22492.00
806.41	22128.00
806.85	21974.00
807.29	21652.00
807.74	21710.00
808.18	21466.00
808.62	21454.00
809.06	21528.00
809.50	21552.00
809.94	21606.00
810.38	21643.00
810.82	21754.00
811.27	21738.00
811.71	21118.00
812.15	20856.00
812.59	20136.00
813.03	19842.00
813.47	19157.00
813.91	18814.00
814.35	18510.00
814.79	18288.00
815.23	18251.00
815.67	17804.00
816.12	17944.00
816.56	17879.00
817.00	18108.00
817.44	18376.00
817.88	18395.00
818.32	18108.00
818.76	18152.00
819.20	18180.00
819.64	18364.00
820.08	18464.00
820.52	18880.00
820.96	19348.00
821.40	18902.00
821.84	18244.00
822.28	17276.00
822.72	17252.00
823.16	17304.00
823.60	18242.00
824.04	19224.00
824.48	19594.00
824.92	19514.00
825.36	19436.00
825.80	19165.00
826.24	18913.00
826.68	18820.00
827.12	18772.00
827.56	18552.00
828.00	18550.00
828.44	18592.00
828.88	18832.00
829.32	19038.00
829.76	19106.00
830.20	19318.00
830.64	19000.00
831.08	19113.00
831.52	18870.00
831.96	18556.00
832.40	18196.00
832.84	18520.00
833.28	18558.00
833.72	19098.00
834.16	19252.00
834.60	19830.00
835.04	19872.00
835.48	20131.00
835.91	20246.00
836.35	20042.00
836.79	19908.00
837.23	19909.00
837.67	19396.00
838.11	19414.00
838.55	19524.00
838.99	19570.00
839.43	19664.00
839.87	19828.00
840.30	20111.00
840.74	20436.00
841.18	20424.00
841.62	20606.00
842.06	20522.00
842.50	20596.00
842.94	20212.00
843.38	20094.00
843.81	19820.00
844.25	19622.00
844.69	19302.00
845.13	19457.00
845.57	19349.00
846.01	19666.00
846.45	19704.00
846.88	19768.00
847.32	20072.00
847.76	20286.00
848.20	20259.00
848.64	20058.00
849.08	19915.00
849.51	19964.00
849.95	19448.00
850.39	19436.00
850.83	19628.00
851.27	19492.00
851.70	19428.00
852.14	19130.00
852.58	18924.00
853.02	18052.00
853.46	17720.00
853.89	17764.00
854.33	17750.00
854.77	18412.00
855.21	19494.00
855.65	19984.00
856.08	20199.00
856.52	20326.00
856.96	20177.00
857.40	19790.00
857.83	19566.00
858.27	19378.00
858.71	18902.00
859.15	18914.00
859.58	18911.00
860.02	19240.00
860.46	19375.00
860.89	19601.00
861.33	19782.00
861.77	19979.00
862.21	20236.00
862.64	20169.00
863.08	20203.00
863.52	20048.00
863.95	19714.00
864.39	19334.00
864.83	18595.00
865.27	17844.00
865.70	17784.00
866.14	17361.00
866.58	17536.00
867.01	18268.00
867.45	18936.00
867.89	19238.00
868.32	19682.00
868.76	19816.00
869.20	19804.00
869.63	20226.00
870.07	19676.00
870.51	19340.00
870.94	18994.00
871.38	18606.00
871.82	18228.00
872.25	18198.00
872.69	18088.00
873.13	18270.00
873.56	18420.00
874.00	18647.00
874.43	18816.00
874.87	19024.00
875.31	19412.00
875.74	19310.00
876.18	19516.00
876.61	19516.00
877.05	19358.00
877.49	18986.00
877.92	18842.00
878.36	18576.00
878.79	18218.00
879.23	17982.00
879.67	17650.00
880.10	17594.00
880.54	17732.00
880.97	17832.00
881.41	18426.00
881.84	18740.00
882.28	19008.00
882.72	19208.00
883.15	19619.00
883.59	19636.00
884.02	19552.00
884.46	19368.00
884.89	19084.00
885.33	18954.00
885.76	18274.00
886.20	17921.00
886.63	17732.00
887.07	17486.00
887.50	17648.00
887.94	17754.00
888.37	17748.00
888.81	18134.00
889.24	18250.00
889.68	18383.00
890.11	18433.00
890.55	18678.00
890.98	18810.00
891.42	18866.00
891.85	18566.00
892.29	18472.00
892.72	18152.00
893.16	17602.00
893.59	17377.00
894.03	16686.00
894.46	16302.00
894.90	15780.00
895.33	15216.00
895.77	15208.00
896.20	15054.00
896.63	15116.00
897.07	15056.00
897.50	15041.00
897.94	15293.00
898.37	15816.00
898.81	14600.00
899.24	14872.00
899.68	15646.00
900.11	15212.00
900.54	14954.00
900.98	14686.00
901.41	14688.00
901.85	14858.00
902.28	14633.00
902.71	15044.00
903.15	15430.00
903.58	15774.00
904.02	15888.00
904.45	15718.00
904.88	15646.00
905.32	15486.00
905.75	15438.00
906.18	14944.00
906.62	15147.00
907.05	14896.00
907.48	14898.00
907.92	14773.00
908.35	14802.00
908.79	14532.00
909.22	14452.00
909.65	14266.00
910.09	14362.00
910.52	14089.00
910.95	14180.00
911.38	14080.00
911.82	13796.00
912.25	13950.00
912.68	14272.00
913.12	14191.00
913.55	14374.00
913.98	14593.00
914.42	15178.00
914.85	15224.00
915.28	14521.00
915.72	14494.00
916.15	14457.00
916.58	14554.00
917.01	13928.00
917.45	13714.00
917.88	14074.00
918.31	14235.00
918.74	14753.00
919.18	14844.00
919.61	14784.00
920.04	15080.00
920.47	15184.00
920.91	15289.00
921.34	15262.00
921.77	15298.00
922.20	15470.00
922.64	15556.00
923.07	15494.00
923.50	15402.00
923.93	15048.00
924.37	15056.00
924.80	14680.00
925.23	14562.00
925.66	14072.00
926.09	13484.00
926.53	13239.00
926.96	12744.00
927.39	12480.00
927.82	11700.00
928.25	11288.00
928.69	11276.00
929.12	11074.00
929.55	10531.00
929.98	10312.00
930.41	9670.00
930.84	9398.00
931.28	8722.00
931.71	8326.00
932.14	7622.00
932.57	7518.00
933.00	7230.00
933.43	7056.00
933.86	6668.00
934.30	6636.00
934.73	7134.00
935.16	6706.00
935.59	6510.00
936.02	6847.00
936.45	6628.00
936.88	6680.00
937.31	7238.00
937.75	7340.00
938.18	7643.00
938.61	7988.00
939.04	8226.00
939.47	8108.00
939.90	7674.00
940.33	7558.00
940.76	7158.00
941.19	6868.00
941.62	6824.00
942.05	6682.00
942.48	6224.00
942.91	6220.00
943.35	6410.00
943.78	6194.00
944.21	6220.00
944.64	6607.00
945.07	6556.00
945.50	6581.00
945.93	6646.00
946.36	6879.00
946.79	7028.00
947.22	7290.00
947.65	7041.00
948.08	6940.00
948.51	7274.00
948.94	7424.00
949.37	7192.00
949.80	6946.00
950.23	6978.00
950.66	7274.00
951.09	7220.00
951.52	6898.00
951.95	7073.00
952.38	7097.00
952.81	7528.00
953.24	7739.00
953.67	7806.00
954.10	7830.00
954.53	7976.00
954.96	7985.00
955.39	8220.00
955.82	8616.00
956.25	8226.00
956.68	8592.00
957.11	8496.00
957.53	8290.00
957.96	8239.00
958.39	8125.00
958.82	7887.00
959.25	8106.00
959.68	8422.00
960.11	8394.00
960.54	8548.00
960.97	9022.00
961.40	9208.00
961.83	9036.00
962.26	9236.00
962.68	9808.00
963.11	9860.00
963.54	9898.00
963.97	10146.00
964.40	10006.00
964.83	10238.00
965.26	10336.00
965.69	10130.00
966.11	10194.00
966.54	10248.00
966.97	10688.00
967.40	10618.00
967.83	10804.00
968.26	10704.00
968.69	10720.00
969.11	10810.00
969.54	10596.00
969.97	10826.00
970.40	10982.00
970.83	10822.00
971.26	10996.00
971.68	10934.00
972.11	11080.00
972.54	11268.00
972.97	11221.00
973.40	11062.00
973.82	11020.00
974.25	10982.00
974.68	10888.00
975.11	10836.00
975.54	10470.00
975.96	10456.00
976.39	10524.00
976.82	10572.00
977.25	10422.00
977.67	10440.00
978.10	10522.00
978.53	10600.00
978.96	10830.00
979.38	10946.00
979.81	11054.00
980.24	11429.00
980.67	11616.00
981.09	11679.00
981.52	11858.00
981.95	11756.00
982.38	11846.00
982.80	11904.00
983.23	12082.00
983.66	12122.00
984.08	11930.00
984.51	11836.00
984.94	11729.00
985.37	11590.00
985.79	11526.00
986.22	11278.00
986.65	11183.00
987.07	11100.00
987.50	11122.00
987.93	11046.00
988.35	11026.00
988.78	11236.00
989.21	11118.00
989.63	11448.00
990.06	11553.00
990.49	11632.00
990.91	11795.00
991.34	11846.00
991.77	11878.00
992.19	11937.00
992.62	11966.00
993.05	11931.00
993.47	11790.00
993.90	11726.00
994.32	11614.00
994.75	11332.00
995.18	11134.00
995.60	11084.00
996.03	10826.00
996.45	10954.00
996.88	10858.00
997.31	10764.00
997.73	10719.00
998.16	10800.00
998.58	10918.00
999.01	10914.00
999.44	10984.00
999.86	11173.00
1000.29	11118.00
1000.71	11236.00
1001.14	11370.00
1001.56	11228.00
1001.99	11243.00
1002.41	11132.00
1002.84	10954.00
1003.27	10748.00
1003.69	10536.00
1004.12	10400.00
1004.54	10294.00
1004.97	10140.00
1005.39	9965.00
1005.82	9901.00
1006.24	9917.00
1006.67	9802.00
1007.09	9804.00
1007.52	9922.00
1007.94	9859.00
1008.37	10090.00
1008.79	10028.00
1009.22	10018.00
1009.64	9996.00
1010.07	10120.00
1010.49	10074.00
1010.92	10048.00
1011.34	10058.00
1011.77	10100.00
1012.19	10155.00
1012.62	10050.00
1013.04	9908.00
1013.46	9768.00
1013.89	9564.00
1014.31	9476.00
1014.74	9292.00
1015.16	9230.00
1015.59	9160.00
1016.01	9232.00
1016.44	9100.00
1016.86	10457.00
1017.28	9206.00
1017.71	9290.00
1018.13	9540.00
1018.56	9594.00
1018.98	9584.00
1019.40	9596.00
1019.83	9554.00
1020.25	9734.00
1020.68	9768.00
1021.10	9930.00
1021.52	9890.00
1021.95	10100.00
1022.37	9884.00
1022.79	9875.00
1023.22	9794.00
1023.64	9806.00
1024.07	9619.00
1024.49	9600.00
1024.91	9412.00
1025.34	9254.00
1025.76	9470.00
1026.18	9218.00
1026.61	9195.00
1027.03	9090.00
1027.45	9072.00
1027.88	9144.00
1028.30	9181.00
1028.72	9268.00
1029.15	9248.00
1029.57	9356.00
1029.99	9400.00
1030.41	9298.00
1030.84	9348.00
1031.26	9437.00
1031.68	9278.00
1032.11	9162.00
1032.53	9182.00
1032.95	9026.00
1033.37	9010.00
1033.80	8908.00
1034.22	8651.00
1034.64	8724.00
1035.06	8564.00
1035.49	8408.00
1035.91	8316.00
1036.33	8228.00
1036.75	8266.00
1037.18	8200.00
1037.60	8162.00
1038.02	8212.00
1038.44	8222.00
1038.87	8214.00
1039.29	8196.00
1039.71	8164.00
1040.13	8298.00
1040.55	8302.00
1040.98	8254.00
1041.40	8244.00
1041.82	8146.00
1042.24	8122.00
1042.66	8076.00
1043.09	7978.00
1043.51	7838.00
1043.93	7836.00
1044.35	7688.00
1044.77	7617.00
1045.20	7587.00
1045.62	7414.00
1046.04	7492.00
1046.46	7333.00
1046.88	7301.00
1047.30	7250.00
1047.72	7234.00
1048.15	7210.00
1048.57	7086.00
1048.99	7137.00
1049.41	7144.00
1049.83	7089.00
1050.25	7226.00
1050.67	7088.00
1051.09	7032.00
1051.52	7048.00
1051.94	6928.00
1052.36	6996.00
1052.78	6900.00
1053.20	6918.00
1053.62	6896.00
1054.04	6900.00
1054.46	6821.00
1054.88	6911.00
1055.30	6768.00
1055.72	6788.00
1056.14	6607.00
1056.57	6803.00
1056.99	6478.00
1057.41	6426.00
1057.83	6442.00
1058.25	6336.00
1058.67	6291.00
1059.09	6206.00
1059.51	6246.00
1059.93	6133.00
1060.35	6104.00
1060.77	6188.00
1061.19	6156.00
1061.61	6049.00
1062.03	6125.00
1062.45	6002.00
1062.87	6044.00
1063.29	6046.00
1063.71	5974.00
1064.13	5966.00
1064.55	5910.00
1064.97	5994.00
1065.39	5890.00
1065.81	5859.00
1066.23	5838.00
1066.65	5769.00
1067.07	5891.00
1067.49	5752.00
1067.91	5658.00
1068.33	5614.00
1068.75	5703.00
1069.17	5652.00
1069.59	5548.00
1070.00	5556.00
1070.42	5560.00
1070.84	5490.00
1071.26	5357.00
1071.68	5350.00
1072.10	5464.00
1072.52	5432.00
1072.94	5318.00
1073.36	5373.00
1073.78	5346.00
1074.20	5366.00
1074.62	5380.00
1075.03	5268.00
1075.45	5306.00
1075.87	5404.00
1076.29	5331.00
1076.71	5359.00
1077.13	5327.00
1077.55	5122.00
1077.97	5210.00
1078.38	5078.00
1078.80	5216.00
1079.22	5108.00
1079.64	5126.00
1080.06	5066.00
1080.48	5028.00
1080.89	5047.00
1081.31	4968.00
1081.73	4926.00
1082.15	4914.00
1082.57	4936.00
1082.99	4844.00
1083.40	4825.00
1083.82	4960.00
1084.24	4778.00
1084.66	4828.00
1085.08	4783.00
1085.49	4739.00
1085.91	4863.00
1086.33	6336.00
1086.75	4804.00
1087.17	4756.00
1087.58	4758.00
1088.00	4770.00
1088.42	4838.00
1088.84	4686.00
1089.25	4694.00
1089.67	4694.00
1090.09	4638.00
1090.51	4523.00
1090.92	4708.00
1091.34	4541.00
1091.76	4549.00
1092.18	4460.00
1092.59	4470.00
1093.01	4486.00
1093.43	4438.00
1093.84	4408.00
1094.26	4394.00
1094.68	4418.00
1095.10	4311.00
1095.51	4344.00
1095.93	4285.00
1096.35	4388.00
1096.76	4384.00
1097.18	4397.00
1097.60	4308.00
1098.01	4321.00
1098.43	4242.00
1098.85	4273.00
1099.26	4235.00
1099.68	4232.00
1100.10	4123.00
1100.51	4128.00
1100.93	4148.00
1101.35	4166.00
1101.76	4126.00
1102.18	4644.00
1102.60	4106.00
1103.01	3991.00
1103.43	4077.00
1103.84	4072.00
1104.26	4048.00
1104.68	4020.00
1105.09	3984.00
1105.51	3974.00
1105.92	4053.00
1106.34	3922.00
1106.76	3950.00
1107.17	3977.00
1107.59	3930.00
1108.00	3862.00
1108.42	3952.00
1108.83	3796.00
1109.25	3836.00
1109.67	3784.00
1110.08	3813.00
1110.50	3775.00
1110.91	3796.00
1111.33	3770.00
1111.74	3738.00
1112.16	3750.00
1112.57	3784.00
1112.99	3696.00
1113.41	3727.00
1113.82	3658.00
1114.24	3682.00
1114.65	3624.00
1115.07	3524.00
1115.48	3378.00
1115.90	2188.00
1116.31	2216.00
1116.73	2217.00
1117.14	2221.00
>>>>>End Processed Spectral Data<<<<<
