SpectraSuite Data File
++++++++++++++++++++++++++++++++++++
Date: Tue May 29 13:19:51 EEST 2018
User: CanSEE
Dark Spectrum Present: No
Reference Spectrum Present: No
Number of Sampled Component Spectra: 1
Spectrometers: MAYP11278
Integration Time (usec): 220000 (MAYP11278)
Spectra Averaged: 1 (MAYP11278)
Boxcar Smoothing: 0 (MAYP11278)
Correct for Electrical Dark: No (MAYP11278)
Strobe/Lamp Enabled: No (MAYP11278)
Correct for Detector Non-linearity: No (MAYP11278)
Correct for Stray Light: No (MAYP11278)
Number of Pixels in Processed Spectrum: 2068
>>>>>Begin Processed Spectral Data<<<<<
187.82	2352.00
188.30	2241.00
188.78	2220.00
189.26	2214.00
189.73	3404.00
190.21	3553.00
190.69	3706.00
191.17	3656.00
191.64	3722.00
192.12	3676.00
192.60	3656.00
193.07	3618.00
193.55	3698.00
194.03	3664.00
194.51	3648.00
194.98	3622.00
195.46	3706.00
195.94	3624.00
196.42	3654.00
196.89	3777.00
197.37	3666.00
197.85	3624.00
198.32	3682.00
198.80	3636.00
199.28	3692.00
199.76	3758.00
200.23	3656.00
200.71	3660.00
201.19	3700.00
201.66	3713.00
202.14	3710.00
202.62	3620.00
203.09	3648.00
203.57	3642.00
204.05	3692.00
204.53	3742.00
205.00	3631.00
205.48	3660.00
205.96	3780.00
206.43	3650.00
206.91	3692.00
207.39	3856.00
207.86	3682.00
208.34	3656.00
208.82	3644.00
209.29	3752.00
209.77	3710.00
210.25	3684.00
210.72	3702.00
211.20	3738.00
211.68	3684.00
212.15	3660.00
212.63	3784.00
213.11	3680.00
213.58	3696.00
214.06	3825.00
214.53	3678.00
215.01	3770.00
215.49	3700.00
215.96	3688.00
216.44	3742.00
216.92	3682.00
217.39	3682.00
217.87	3716.00
218.35	3716.00
218.82	3596.00
219.30	3656.00
219.77	3658.00
220.25	3688.00
220.73	3834.00
221.20	3700.00
221.68	3742.00
222.15	3652.00
222.63	3735.00
223.11	3664.00
223.58	3752.00
224.06	3736.00
224.53	3672.00
225.01	3651.00
225.49	3678.00
225.96	3670.00
226.44	3717.00
226.91	3720.00
227.39	3704.00
227.87	3702.00
228.34	3723.00
228.82	3692.00
229.29	3702.00
229.77	3705.00
230.24	3654.00
230.72	3708.00
231.20	3750.00
231.67	3699.00
232.15	3710.00
232.62	3652.00
233.10	3710.00
233.57	3736.00
234.05	3904.00
234.53	3710.00
235.00	3684.00
235.48	3735.00
235.95	3734.00
236.43	3771.00
236.90	3856.00
237.38	3636.00
237.85	3700.00
238.33	3684.00
238.80	3739.00
239.28	3731.00
239.75	3638.00
240.23	3752.00
240.71	3798.00
241.18	3688.00
241.66	3660.00
242.13	3714.00
242.61	3775.00
243.08	3650.00
243.56	3666.00
244.03	3740.00
244.51	3800.00
244.98	3713.00
245.46	3716.00
245.93	5622.00
246.41	3628.00
246.88	3738.00
247.36	3721.00
247.83	3725.00
248.31	3771.00
248.78	3646.00
249.26	3722.00
249.73	3728.00
250.21	3766.00
250.68	3798.00
251.16	3737.00
251.63	3832.00
252.10	3775.00
252.58	3708.00
253.05	3786.00
253.53	3748.00
254.00	3658.00
254.48	3729.00
254.95	3741.00
255.43	3758.00
255.90	3732.00
256.38	3719.00
256.85	3739.00
257.33	3797.00
257.80	3848.00
258.27	3712.00
258.75	3702.00
259.22	3713.00
259.70	3722.00
260.17	3782.00
260.65	3721.00
261.12	3698.00
261.59	3750.00
262.07	3660.00
262.54	3736.00
263.02	3716.00
263.49	3678.00
263.97	3765.00
264.44	3744.00
264.91	3690.00
265.39	3727.00
265.86	3759.00
266.34	3782.00
266.81	3761.00
267.28	3798.00
267.76	3714.00
268.23	3717.00
268.71	3619.00
269.18	3660.00
269.65	3688.00
270.13	3702.00
270.60	3768.00
271.08	3704.00
271.55	3740.00
272.02	3678.00
272.50	3654.00
272.97	3650.00
273.44	3737.00
273.92	3882.00
274.39	3743.00
274.87	3729.00
275.34	3698.00
275.81	3726.00
276.29	3668.00
276.76	3727.00
277.23	3566.00
277.71	3650.00
278.18	3576.00
278.65	3843.00
279.13	3646.00
279.60	3641.00
280.07	4002.00
280.55	3942.00
281.02	4007.00
281.50	3733.00
281.97	3846.00
282.44	3728.00
282.91	3696.00
283.39	3807.00
283.86	3749.00
284.33	3720.00
284.81	3796.00
285.28	3748.00
285.75	3771.00
286.23	3761.00
286.70	3674.00
287.17	3739.00
287.65	3802.00
288.12	3684.00
288.59	3801.00
289.07	3652.00
289.54	3822.00
290.01	3704.00
290.48	3726.00
290.96	3738.00
291.43	3788.00
291.90	3812.00
292.38	3715.00
292.85	3796.00
293.32	3726.00
293.79	3788.00
294.27	3750.00
294.74	3723.00
295.21	3778.00
295.69	3772.00
296.16	3822.00
296.63	3841.00
297.10	3776.00
297.58	3763.00
298.05	3795.00
298.52	3718.00
298.99	3846.00
299.47	3723.00
299.94	3794.00
300.41	3734.00
300.88	3776.00
301.36	3775.00
301.83	3792.00
302.30	3700.00
302.77	3790.00
303.25	3764.00
303.72	3734.00
304.19	3714.00
304.66	3724.00
305.13	3761.00
305.61	3756.00
306.08	3771.00
306.55	3786.00
307.02	3704.00
307.49	3752.00
307.97	3746.00
308.44	3704.00
308.91	3773.00
309.38	3826.00
309.86	3755.00
310.33	3739.00
310.80	3773.00
311.27	3733.00
311.74	3804.00
312.21	3784.00
312.69	3844.00
313.16	3702.00
313.63	3761.00
314.10	3762.00
314.57	3700.00
315.05	3724.00
315.52	3805.00
315.99	3772.00
316.46	3779.00
316.93	3779.00
317.40	3808.00
317.88	3918.00
318.35	3722.00
318.82	3760.00
319.29	3738.00
319.76	3810.00
320.23	3854.00
320.70	3822.00
321.18	3747.00
321.65	3660.00
322.12	3722.00
322.59	3867.00
323.06	3764.00
323.53	3928.00
324.00	3702.00
324.48	3788.00
324.95	3727.00
325.42	3759.00
325.89	3765.00
326.36	3775.00
326.83	3830.00
327.30	3792.00
327.77	3779.00
328.24	3759.00
328.72	3775.00
329.19	3727.00
329.66	3765.00
330.13	3734.00
330.60	3823.00
331.07	3807.00
331.54	3867.00
332.01	3714.00
332.48	3886.00
332.95	3808.00
333.43	3792.00
333.90	3841.00
334.37	3798.00
334.84	3798.00
335.31	3976.00
335.78	3749.00
336.25	3770.00
336.72	3696.00
337.19	3790.00
337.66	3713.00
338.13	3756.00
338.60	3844.00
339.07	3826.00
339.54	3698.00
340.01	3702.00
340.49	3734.00
340.96	3762.00
341.43	3812.00
341.90	3722.00
342.37	3783.00
342.84	3810.00
343.31	3759.00
343.78	3742.00
344.25	3766.00
344.72	3747.00
345.19	3733.00
345.66	3851.00
346.13	3743.00
346.60	3727.00
347.07	3822.00
347.54	3746.00
348.01	3839.00
348.48	3780.00
348.95	3722.00
349.42	3800.00
349.89	3759.00
350.36	3803.00
350.83	3760.00
351.30	3814.00
351.77	3876.00
352.24	3824.00
352.71	3762.00
353.18	3777.00
353.65	3812.00
354.12	3743.00
354.59	3817.00
355.06	3804.00
355.53	3838.00
356.00	3741.00
356.47	3902.00
356.94	3733.00
357.41	3908.00
357.88	3789.00
358.35	3742.00
358.82	3751.00
359.28	3773.00
359.75	3743.00
360.22	3860.00
360.69	3846.00
361.16	3771.00
361.63	3746.00
362.10	3812.00
362.57	3745.00
363.04	3767.00
363.51	3866.00
363.98	3815.00
364.45	3764.00
364.92	3800.00
365.39	3738.00
365.86	3749.00
366.32	3800.00
366.79	3758.00
367.26	4836.00
367.73	4138.00
368.20	3718.00
368.67	3848.00
369.14	3732.00
369.61	3799.00
370.08	3794.00
370.55	3749.00
371.02	4493.00
371.48	3812.00
371.95	3728.00
372.42	3721.00
372.89	3809.00
373.36	3751.00
373.83	3744.00
374.30	3698.00
374.77	3782.00
375.23	3702.00
375.70	3824.00
376.17	3731.00
376.64	3716.00
377.11	3728.00
377.58	3773.00
378.05	3795.00
378.51	3773.00
378.98	3778.00
379.45	3745.00
379.92	3816.00
380.39	3950.00
380.86	3782.00
381.33	3842.00
381.79	3890.00
382.26	3700.00
382.73	3792.00
383.20	3793.00
383.67	3846.00
384.14	3823.00
384.60	4004.00
385.07	3809.00
385.54	3743.00
386.01	3790.00
386.48	3878.00
386.94	3739.00
387.41	3713.00
387.88	3791.00
388.35	3820.00
388.82	3862.00
389.28	3777.00
389.75	3818.00
390.22	3843.00
390.69	3805.00
391.16	3794.00
391.62	3761.00
392.09	3784.00
392.56	3722.00
393.03	3798.00
393.50	3887.00
393.96	3813.00
394.43	3832.00
394.90	3788.00
395.37	3832.00
395.83	4029.00
396.30	3716.00
396.77	3834.00
397.24	3809.00
397.70	3714.00
398.17	3810.00
398.64	3811.00
399.11	3799.00
399.57	3868.00
400.04	3739.00
400.51	3818.00
400.98	3737.00
401.44	3829.00
401.91	3800.00
402.38	3819.00
402.84	3739.00
403.31	3844.00
403.78	3782.00
404.25	3904.00
404.71	3892.00
405.18	3862.00
405.65	3787.00
406.12	3817.00
406.58	3808.00
407.05	3903.00
407.52	3817.00
407.98	4164.00
408.45	3860.00
408.92	3734.00
409.38	3900.00
409.85	3724.00
410.32	3871.00
410.78	3790.00
411.25	3882.00
411.72	3826.00
412.18	3728.00
412.65	3851.00
413.12	3800.00
413.59	3838.00
414.05	3817.00
414.52	3874.00
414.98	3876.00
415.45	3890.00
415.92	3839.00
416.38	3808.00
416.85	3932.00
417.32	3838.00
417.78	3805.00
418.25	3820.00
418.72	3836.00
419.18	3870.00
419.65	3804.00
420.12	3877.00
420.58	3776.00
421.05	3822.00
421.51	3813.00
421.98	3862.00
422.45	3812.00
422.91	3812.00
423.38	3870.00
423.85	3882.00
424.31	3814.00
424.78	3870.00
425.24	3874.00
425.71	3908.00
426.18	3812.00
426.64	3894.00
427.11	3842.00
427.57	3848.00
428.04	3789.00
428.51	3875.00
428.97	3822.00
429.44	3773.00
429.90	3855.00
430.37	3954.00
430.83	3780.00
431.30	3783.00
431.77	3940.00
432.23	3906.00
432.70	3850.00
433.16	3818.00
433.63	3864.00
434.09	3822.00
434.56	3896.00
435.03	3790.00
435.49	3855.00
435.96	3809.00
436.42	3801.00
436.89	3859.00
437.35	3856.00
437.82	3826.00
438.28	3796.00
438.75	3848.00
439.21	4036.00
439.68	3894.00
440.14	3890.00
440.61	3928.00
441.07	3806.00
441.54	3860.00
442.00	3989.00
442.47	3822.00
442.94	3843.00
443.40	3914.00
443.87	3756.00
444.33	3904.00
444.80	3860.00
445.26	3854.00
445.73	3848.00
446.19	3922.00
446.65	3840.00
447.12	3850.00
447.58	3860.00
448.05	3804.00
448.51	3837.00
448.98	3898.00
449.44	3856.00
449.91	3872.00
450.37	3826.00
450.84	3871.00
451.30	3818.00
451.77	3886.00
452.23	3848.00
452.70	3936.00
453.16	3846.00
453.62	3875.00
454.09	3836.00
454.55	3894.00
455.02	3836.00
455.48	3852.00
455.95	3922.00
456.41	3822.00
456.88	3890.00
457.34	3804.00
457.80	3839.00
458.27	3748.00
458.73	3846.00
459.20	3840.00
459.66	3885.00
460.13	3800.00
460.59	3787.00
461.05	3868.00
461.52	3838.00
461.98	3804.00
462.45	3724.00
462.91	3841.00
463.37	3765.00
463.84	3788.00
464.30	3750.00
464.76	3724.00
465.23	3773.00
465.69	3848.00
466.16	3750.00
466.62	3736.00
467.08	3818.00
467.55	3758.00
468.01	3772.00
468.48	3759.00
468.94	3773.00
469.40	3739.00
469.87	3759.00
470.33	3760.00
470.79	3736.00
471.26	3698.00
471.72	3743.00
472.18	3702.00
472.65	3698.00
473.11	3804.00
473.57	3748.00
474.04	3672.00
474.50	3713.00
474.96	3660.00
475.43	3726.00
475.89	3756.00
476.35	3700.00
476.82	3771.00
477.28	3740.00
477.74	3770.00
478.21	3728.00
478.67	3732.00
479.13	3680.00
479.59	3804.00
480.06	3747.00
480.52	3716.00
480.98	3662.00
481.45	3690.00
481.91	3706.00
482.37	3676.00
482.84	3678.00
483.30	3660.00
483.76	3666.00
484.22	3740.00
484.69	3694.00
485.15	3714.00
485.61	3588.00
486.07	3704.00
486.54	3562.00
487.00	3705.00
487.46	3632.00
487.92	3644.00
488.39	3666.00
488.85	3700.00
489.31	3718.00
489.77	3721.00
490.24	3612.00
490.70	3702.00
491.16	3628.00
491.62	3656.00
492.09	3656.00
492.55	3749.00
493.01	3738.00
493.47	3726.00
493.94	3676.00
494.40	3708.00
494.86	3670.00
495.32	3702.00
495.78	3755.00
496.25	3744.00
496.71	3719.00
497.17	3840.00
497.63	3798.00
498.09	3723.00
498.56	3756.00
499.02	3749.00
499.48	3888.00
499.94	3761.00
500.40	3738.00
500.87	3804.00
501.33	3726.00
501.79	3778.00
502.25	3772.00
502.71	4086.00
503.17	3782.00
503.64	3801.00
504.10	3833.00
504.56	3802.00
505.02	3851.00
505.48	3797.00
505.94	3852.00
506.40	3892.00
506.87	3874.00
507.33	3914.00
507.79	3886.00
508.25	3848.00
508.71	3870.00
509.17	3908.00
509.63	3910.00
510.10	3962.00
510.56	3948.00
511.02	4028.00
511.48	4061.00
511.94	3974.00
512.40	3969.00
512.86	4010.00
513.32	4122.00
513.78	3993.00
514.25	4150.00
514.71	4850.00
515.17	4024.00
515.63	4182.00
516.09	4208.00
516.55	4168.00
517.01	4308.00
517.47	4253.00
517.93	4188.00
518.39	4452.00
518.85	4320.00
519.32	4378.00
519.78	4384.00
520.24	4413.00
520.70	4502.00
521.16	4572.00
521.62	4566.00
522.08	4548.00
522.54	4602.00
523.00	4672.00
523.46	4704.00
523.92	4692.00
524.38	4906.00
524.84	4768.00
525.30	4789.00
525.76	4788.00
526.22	4734.00
526.68	4634.00
527.14	4814.00
527.60	4822.00
528.06	4938.00
528.52	4986.00
528.98	5014.00
529.44	4920.00
529.90	4990.00
530.36	5080.00
530.82	4974.00
531.28	5149.00
531.74	5038.00
532.20	5054.00
532.66	5026.00
533.12	5128.00
533.58	5092.00
534.04	5028.00
534.50	5121.00
534.96	5160.00
535.42	5236.00
535.88	5216.00
536.34	5198.00
536.80	5032.00
537.26	5156.00
537.72	5192.00
538.18	5256.00
538.64	5328.00
539.10	5236.00
539.56	5422.00
540.02	5136.00
540.48	5234.00
540.94	5182.00
541.40	5162.00
541.86	5220.00
542.32	5234.00
542.78	5164.00
543.24	5404.00
543.69	5180.00
544.15	5352.00
544.61	5234.00
545.07	5202.00
545.53	5180.00
545.99	5300.00
546.45	5212.00
546.91	5282.00
547.37	5312.00
547.83	5252.00
548.29	5222.00
548.74	5254.00
549.20	5254.00
549.66	5386.00
550.12	5267.00
550.58	5214.00
551.04	5326.00
551.50	5335.00
551.96	5404.00
552.42	5263.00
552.87	5270.00
553.33	5336.00
553.79	5284.00
554.25	5240.00
554.71	5308.00
555.17	5348.00
555.63	5388.00
556.08	5284.00
556.54	5283.00
557.00	5103.00
557.46	5220.00
557.92	5308.00
558.38	5176.00
558.83	5110.00
559.29	5123.00
559.75	5116.00
560.21	5046.00
560.67	5160.00
561.13	5182.00
561.58	5080.00
562.04	5023.00
562.50	5125.00
562.96	5045.00
563.42	5160.00
563.87	5021.00
564.33	5048.00
564.79	4964.00
565.25	5000.00
565.71	4930.00
566.16	5038.00
566.62	4952.00
567.08	4924.00
567.54	4929.00
568.00	4940.00
568.45	4849.00
568.91	4886.00
569.37	4884.00
569.83	4794.00
570.28	4774.00
570.74	4746.00
571.20	4835.00
571.66	4708.00
572.11	4781.00
572.57	4714.00
573.03	4676.00
573.49	4666.00
573.94	4663.00
574.40	4724.00
574.86	4690.00
575.32	4528.00
575.77	4599.00
576.23	4526.00
576.69	4620.00
577.15	4551.00
577.60	4516.00
578.06	4452.00
578.52	4610.00
578.97	4528.00
579.43	4426.00
579.89	4538.00
580.34	4470.00
580.80	4464.00
581.26	4518.00
581.72	4546.00
582.17	4508.00
582.63	4398.00
583.09	4460.00
583.54	4509.00
584.00	4432.00
584.46	4498.00
584.91	4424.00
585.37	4516.00
585.83	4360.00
586.28	4364.00
586.74	4358.00
587.20	4402.00
587.65	4434.00
588.11	4290.00
588.57	4305.00
589.02	4245.00
589.48	4216.00
589.94	4298.00
590.39	4340.00
590.85	4280.00
591.30	4308.00
591.76	4352.00
592.22	4345.00
592.67	4340.00
593.13	4294.00
593.59	4311.00
594.04	4288.00
594.50	4230.00
594.95	4310.00
595.41	4242.00
595.87	4246.00
596.32	4346.00
596.78	4376.00
597.23	4268.00
597.69	4303.00
598.15	4206.00
598.60	4292.00
599.06	4328.00
599.51	4251.00
599.97	4279.00
600.43	4312.00
600.88	4282.00
601.34	4307.00
601.79	4206.00
602.25	4398.00
602.70	4253.00
603.16	4257.00
603.61	4202.00
604.07	4166.00
604.53	4269.00
604.98	4184.00
605.44	4239.00
605.89	4184.00
606.35	4180.00
606.80	4184.00
607.26	4150.00
607.71	4172.00
608.17	4218.00
608.62	4188.00
609.08	4306.00
609.53	4225.00
609.99	4160.00
610.44	4116.00
610.90	4140.00
611.35	4084.00
611.81	4206.00
612.26	4126.00
612.72	4146.00
613.17	4272.00
613.63	4090.00
614.08	4048.00
614.54	4042.00
614.99	4016.00
615.45	4040.00
615.90	4074.00
616.36	4012.00
616.81	4039.00
617.27	4066.00
617.72	4070.00
618.18	4034.00
618.63	4016.00
619.09	4036.00
619.54	4053.00
619.99	4044.00
620.45	4080.00
620.90	4114.00
621.36	4024.00
621.81	4051.00
622.27	4112.00
622.72	4084.00
623.18	4048.00
623.63	3982.00
624.08	4058.00
624.54	3918.00
624.99	3954.00
625.45	4035.00
625.90	3970.00
626.35	3958.00
626.81	4003.00
627.26	3976.00
627.72	4006.00
628.17	4044.00
628.62	3932.00
629.08	3940.00
629.53	3995.00
629.99	3944.00
630.44	4020.00
630.89	3975.00
631.35	3986.00
631.80	3998.00
632.26	3990.00
632.71	3958.00
633.16	3944.00
633.62	3926.00
634.07	3964.00
634.52	3926.00
634.98	3940.00
635.43	3971.00
635.88	3916.00
636.34	3952.00
636.79	3944.00
637.24	3900.00
637.70	4004.00
638.15	3980.00
638.60	3910.00
639.06	3934.00
639.51	3908.00
639.96	3872.00
640.42	3924.00
640.87	3948.00
641.32	3806.00
641.78	3822.00
642.23	3894.00
642.68	3814.00
643.14	3828.00
643.59	3863.00
644.04	3840.00
644.49	3777.00
644.95	3840.00
645.40	3785.00
645.85	3791.00
646.31	3811.00
646.76	3838.00
647.21	3856.00
647.66	3802.00
648.12	3722.00
648.57	3729.00
649.02	3828.00
649.47	3788.00
649.93	3981.00
650.38	3737.00
650.83	3749.00
651.28	3704.00
651.74	3759.00
652.19	3678.00
652.64	3723.00
653.09	3704.00
653.55	3688.00
654.00	3750.00
654.45	3730.00
654.90	3738.00
655.35	3670.00
655.81	3772.00
656.26	3660.00
656.71	3686.00
657.16	3748.00
657.62	3731.00
658.07	3708.00
658.52	3738.00
658.97	3672.00
659.42	3952.00
659.88	3686.00
660.33	3749.00
660.78	3686.00
661.23	3638.00
661.68	3658.00
662.13	3668.00
662.59	3596.00
663.04	3713.00
663.49	3634.00
663.94	3648.00
664.39	3635.00
664.84	3638.00
665.30	3654.00
665.75	3600.00
666.20	3700.00
666.65	3658.00
667.10	3763.00
667.55	3722.00
668.00	3587.00
668.46	3676.00
668.91	3596.00
669.36	3771.00
669.81	3561.00
670.26	3594.00
670.71	3686.00
671.16	3616.00
671.61	3734.00
672.06	3780.00
672.52	3608.00
672.97	3628.00
673.42	3698.00
673.87	3800.00
674.32	3618.00
674.77	3700.00
675.22	3540.00
675.67	3595.00
676.12	3606.00
676.57	3652.00
677.02	3592.00
677.47	3592.00
677.93	3769.00
678.38	3546.00
678.83	3610.00
679.28	3617.00
679.73	3592.00
680.18	3602.00
680.63	3620.00
681.08	3553.00
681.53	3539.00
681.98	3582.00
682.43	3650.00
682.88	3640.00
683.33	3668.00
683.78	3686.00
684.23	3729.00
684.68	3700.00
685.13	3694.00
685.58	3650.00
686.03	3666.00
686.48	3585.00
686.93	3686.00
687.38	3628.00
687.83	3668.00
688.28	3688.00
688.73	3928.00
689.18	3794.00
689.63	3648.00
690.08	3781.00
690.53	3777.00
690.98	3767.00
691.43	3838.00
691.88	3814.00
692.33	3954.00
692.78	3904.00
693.23	4082.00
693.68	4010.00
694.13	4012.00
694.58	4054.00
695.03	4348.00
695.48	4202.00
695.93	4248.00
696.38	4426.00
696.83	4340.00
697.28	4352.00
697.72	4497.00
698.17	4468.00
698.62	4576.00
699.07	4648.00
699.52	4676.00
699.97	4688.00
700.42	4776.00
700.87	4851.00
701.32	5051.00
701.77	4856.00
702.22	5086.00
702.67	5056.00
703.11	5120.00
703.56	5182.00
704.01	5362.00
704.46	5341.00
704.91	5596.00
705.36	5564.00
705.81	5609.00
706.26	5563.00
706.70	5738.00
707.15	5752.00
707.60	5862.00
708.05	5914.00
708.50	6032.00
708.95	6036.00
709.40	6114.00
709.84	6236.00
710.29	6146.00
710.74	6308.00
711.19	6422.00
711.64	6446.00
712.09	6559.00
712.53	6520.00
712.98	6748.00
713.43	6734.00
713.88	6774.00
714.33	6908.00
714.78	6874.00
715.22	6752.00
715.67	6962.00
716.12	6868.00
716.57	6780.00
717.02	6568.00
717.46	6528.00
717.91	6569.00
718.36	6602.00
718.81	6492.00
719.26	6528.00
719.70	6654.00
720.15	6744.00
720.60	6972.00
721.05	7309.00
721.49	7570.00
721.94	7698.00
722.39	7742.00
722.84	7570.00
723.28	7385.00
723.73	7404.00
724.18	7331.00
724.63	7532.00
725.07	7488.00
725.52	7690.00
725.97	7835.00
726.42	7849.00
726.86	8028.00
727.31	7780.00
727.76	8077.00
728.21	8248.00
728.65	8100.00
729.10	8218.00
729.55	8308.00
729.99	8478.00
730.44	8424.00
730.89	8554.00
731.33	8796.00
731.78	8944.00
732.23	9192.00
732.68	9260.00
733.12	9518.00
733.57	9524.00
734.02	9678.00
734.46	9858.00
734.91	9780.00
735.36	9840.00
735.80	10006.00
736.25	9940.00
736.70	10110.00
737.14	10252.00
737.59	10217.00
738.04	10222.00
738.48	10224.00
738.93	10214.00
739.37	10378.00
739.82	10570.00
740.27	10614.00
740.71	10498.00
741.16	10730.00
741.61	10723.00
742.05	10792.00
742.50	10788.00
742.94	10826.00
743.39	10840.00
743.84	10900.00
744.28	10944.00
744.73	11092.00
745.18	11168.00
745.62	11192.00
746.07	11282.00
746.51	11104.00
746.96	11128.00
747.40	11102.00
747.85	11211.00
748.30	11068.00
748.74	11128.00
749.19	11128.00
749.63	11356.00
750.08	11250.00
750.52	11092.00
750.97	11190.00
751.42	11181.00
751.86	11206.00
752.31	11281.00
752.75	11266.00
753.20	11164.00
753.64	11232.00
754.09	11162.00
754.53	11252.00
754.98	11145.00
755.42	11208.00
755.87	11256.00
756.31	11260.00
756.76	11198.00
757.20	11217.00
757.65	11084.00
758.09	10912.00
758.54	10634.00
758.98	9532.00
759.43	8070.00
759.87	6556.00
760.32	5762.00
760.76	5778.00
761.21	6510.00
761.65	7292.00
762.10	7347.00
762.54	7075.00
762.99	6834.00
763.43	7053.00
763.88	7348.00
764.32	7608.00
764.77	8124.00
765.21	8578.00
765.66	8885.00
766.10	9298.00
766.54	9596.00
766.99	9948.00
767.43	10220.00
767.88	10552.00
768.32	10616.00
768.77	10680.00
769.21	10889.00
769.66	10890.00
770.10	11068.00
770.54	11032.00
770.99	11100.00
771.43	11171.00
771.88	11223.00
772.32	10975.00
772.76	11044.00
773.21	11092.00
773.65	11108.00
774.10	10878.00
774.54	10990.00
774.98	11018.00
775.43	11128.00
775.87	11158.00
776.31	11164.00
776.76	11244.00
777.20	11188.00
777.65	11050.00
778.09	11060.00
778.53	11030.00
778.98	10971.00
779.42	11122.00
779.86	10996.00
780.31	10965.00
780.75	11044.00
781.19	10985.00
781.64	10998.00
782.08	11102.00
782.52	10968.00
782.97	11008.00
783.41	10830.00
783.85	10862.00
784.30	10822.00
784.74	10820.00
785.18	10800.00
785.63	10660.00
786.07	10750.00
786.51	10842.00
786.95	10812.00
787.40	10714.00
787.84	10694.00
788.28	10628.00
788.73	10754.00
789.17	10469.00
789.61	10398.00
790.05	10350.00
790.50	10232.00
790.94	10187.00
791.38	10304.00
791.82	10370.00
792.27	10415.00
792.71	10378.00
793.15	10546.00
793.59	10524.00
794.04	10226.00
794.48	10371.00
794.92	10234.00
795.36	10184.00
795.81	10206.00
796.25	10044.00
796.69	10160.00
797.13	10104.00
797.57	10316.00
798.02	10360.00
798.46	10376.00
798.90	10430.00
799.34	10196.00
799.79	10205.00
800.23	9976.00
800.67	10042.00
801.11	9897.00
801.55	9992.00
801.99	9883.00
802.44	10036.00
802.88	10020.00
803.32	9995.00
803.76	10044.00
804.20	10104.00
804.64	10110.00
805.09	10094.00
805.53	10262.00
805.97	9974.00
806.41	9948.00
806.85	9888.00
807.29	9690.00
807.74	9638.00
808.18	9730.00
808.62	9732.00
809.06	9656.00
809.50	9704.00
809.94	9714.00
810.38	9762.00
810.82	9822.00
811.27	9857.00
811.71	9529.00
812.15	9435.00
812.59	9262.00
813.03	9170.00
813.47	8891.00
813.91	8746.00
814.35	8574.00
814.79	8538.00
815.23	8470.00
815.67	8392.00
816.12	8414.00
816.56	8294.00
817.00	8478.00
817.44	8574.00
817.88	8572.00
818.32	8388.00
818.76	8520.00
819.20	8518.00
819.64	8500.00
820.08	8681.00
820.52	8716.00
820.96	8758.00
821.40	8722.00
821.84	8578.00
822.28	8137.00
822.72	8161.00
823.16	8154.00
823.60	8434.00
824.04	8899.00
824.48	8982.00
824.92	8961.00
825.36	8924.00
825.80	8798.00
826.24	8746.00
826.68	8632.00
827.12	8690.00
827.56	8576.00
828.00	8585.00
828.44	8590.00
828.88	8766.00
829.32	8870.00
829.76	8806.00
830.20	8918.00
830.64	8898.00
831.08	8812.00
831.52	8784.00
831.96	8619.00
832.40	8458.00
832.84	8603.00
833.28	8694.00
833.72	8826.00
834.16	8976.00
834.60	8992.00
835.04	9086.00
835.48	9250.00
835.91	9084.00
836.35	9134.00
836.79	9074.00
837.23	9158.00
837.67	8918.00
838.11	8858.00
838.55	8911.00
838.99	8930.00
839.43	9086.00
839.87	9190.00
840.30	9115.00
840.74	9442.00
841.18	9176.00
841.62	9294.00
842.06	9322.00
842.50	9294.00
842.94	9250.00
843.38	9220.00
843.81	9122.00
844.25	9034.00
844.69	8998.00
845.13	9026.00
845.57	8922.00
846.01	9088.00
846.45	8986.00
846.88	9098.00
847.32	9166.00
847.76	9142.00
848.20	9264.00
848.64	9164.00
849.08	9086.00
849.51	9004.00
849.95	8918.00
850.39	8926.00
850.83	9028.00
851.27	8968.00
851.70	8901.00
852.14	8872.00
852.58	8674.00
853.02	8562.00
853.46	8353.00
853.89	8348.00
854.33	8411.00
854.77	8564.00
855.21	8904.00
855.65	9152.00
856.08	9312.00
856.52	9284.00
856.96	9252.00
857.40	9030.00
857.83	8860.00
858.27	8950.00
858.71	8748.00
859.15	8718.00
859.58	8686.00
860.02	8763.00
860.46	8960.00
860.89	9022.00
861.33	8978.00
861.77	9106.00
862.21	9182.00
862.64	9184.00
863.08	9214.00
863.52	9224.00
863.95	9038.00
864.39	8837.00
864.83	8590.00
865.27	8345.00
865.70	8360.00
866.14	8172.00
866.58	8250.00
867.01	8526.00
867.45	8792.00
867.89	8846.00
868.32	8944.00
868.76	9040.00
869.20	9076.00
869.63	9170.00
870.07	9089.00
870.51	8812.00
870.94	8750.00
871.38	8599.00
871.82	8472.00
872.25	8467.00
872.69	8457.00
873.13	8440.00
873.56	8550.00
874.00	8636.00
874.43	8658.00
874.87	8668.00
875.31	8939.00
875.74	8836.00
876.18	9008.00
876.61	8901.00
877.05	8830.00
877.49	8798.00
877.92	8702.00
878.36	8649.00
878.79	8512.00
879.23	8532.00
879.67	8252.00
880.10	8255.00
880.54	8347.00
880.97	8366.00
881.41	8517.00
881.84	8732.00
882.28	8684.00
882.72	8824.00
883.15	8920.00
883.59	8960.00
884.02	8923.00
884.46	8782.00
884.89	8804.00
885.33	8610.00
885.76	8450.00
886.20	8364.00
886.63	8432.00
887.07	8198.00
887.50	8310.00
887.94	8350.00
888.37	8236.00
888.81	8579.00
889.24	8390.00
889.68	8486.00
890.11	8522.00
890.55	8654.00
890.98	8696.00
891.42	8594.00
891.85	8668.00
892.29	8748.00
892.72	8286.00
893.16	8238.00
893.59	8030.00
894.03	7942.00
894.46	7748.00
894.90	7542.00
895.33	7337.00
895.77	7471.00
896.20	7362.00
896.63	7250.00
897.07	7354.00
897.50	7356.00
897.94	7316.00
898.37	7613.00
898.81	7184.00
899.24	7270.00
899.68	7514.00
900.11	7320.00
900.54	7312.00
900.98	7197.00
901.41	7278.00
901.85	7304.00
902.28	7206.00
902.71	7288.00
903.15	7572.00
903.58	7641.00
904.02	7590.00
904.45	7466.00
904.88	7470.00
905.32	7454.00
905.75	7436.00
906.18	7340.00
906.62	7422.00
907.05	7284.00
907.48	7242.00
907.92	7254.00
908.35	7292.00
908.79	7153.00
909.22	7000.00
909.65	7086.00
910.09	7050.00
910.52	7132.00
910.95	7035.00
911.38	7074.00
911.82	6884.00
912.25	6970.00
912.68	7048.00
913.12	7008.00
913.55	7091.00
913.98	7092.00
914.42	7434.00
914.85	7333.00
915.28	7153.00
915.72	7210.00
916.15	7097.00
916.58	7217.00
917.01	6984.00
917.45	6840.00
917.88	6959.00
918.31	7087.00
918.74	7216.00
919.18	7254.00
919.61	7310.00
920.04	7400.00
920.47	7481.00
920.91	7446.00
921.34	7366.00
921.77	7416.00
922.20	7526.00
922.64	7512.00
923.07	7488.00
923.50	7420.00
923.93	7342.00
924.37	7332.00
924.80	7139.00
925.23	7164.00
925.66	7078.00
926.09	6768.00
926.53	6692.00
926.96	6504.00
927.39	6482.00
927.82	6184.00
928.25	6044.00
928.69	6008.00
929.12	5955.00
929.55	5806.00
929.98	5738.00
930.41	5488.00
930.84	5425.00
931.28	5139.00
931.71	5122.00
932.14	4884.00
932.57	4921.00
933.00	4698.00
933.43	4658.00
933.86	4582.00
934.30	4534.00
934.73	4710.00
935.16	4528.00
935.59	4436.00
936.02	4523.00
936.45	4483.00
936.88	4486.00
937.31	4706.00
937.75	4712.00
938.18	4791.00
938.61	4958.00
939.04	5033.00
939.47	4952.00
939.90	4929.00
940.33	4860.00
940.76	4613.00
941.19	4668.00
941.62	4540.00
942.05	4552.00
942.48	4430.00
942.91	4349.00
943.35	4408.00
943.78	4392.00
944.21	4362.00
944.64	4490.00
945.07	4538.00
945.50	4481.00
945.93	4516.00
946.36	4603.00
946.79	4671.00
947.22	4682.00
947.65	4712.00
948.08	4547.00
948.51	4718.00
948.94	4718.00
949.37	4817.00
949.80	4668.00
950.23	4618.00
950.66	4704.00
951.09	4710.00
951.52	4536.00
951.95	4658.00
952.38	4696.00
952.81	4894.00
953.24	4842.00
953.67	4814.00
954.10	4884.00
954.53	4896.00
954.96	4879.00
955.39	5029.00
955.82	5126.00
956.25	5088.00
956.68	5236.00
957.11	5112.00
957.53	5074.00
957.96	5021.00
958.39	4952.00
958.82	4924.00
959.25	4968.00
959.68	5046.00
960.11	5118.00
960.54	5136.00
960.97	5242.00
961.40	5382.00
961.83	5348.00
962.26	5360.00
962.68	5505.00
963.11	5537.00
963.54	5536.00
963.97	5488.00
964.40	5604.00
964.83	5758.00
965.26	5761.00
965.69	5628.00
966.11	5606.00
966.54	5614.00
966.97	5776.00
967.40	5815.00
967.83	5952.00
968.26	5822.00
968.69	5855.00
969.11	5934.00
969.54	5808.00
969.97	5829.00
970.40	5942.00
970.83	5875.00
971.26	5907.00
971.68	5898.00
972.11	5926.00
972.54	5932.00
972.97	6020.00
973.40	5852.00
973.82	5996.00
974.25	5928.00
974.68	5903.00
975.11	5820.00
975.54	5750.00
975.96	5712.00
976.39	5708.00
976.82	5782.00
977.25	5760.00
977.67	5683.00
978.10	5686.00
978.53	5788.00
978.96	5918.00
979.38	5930.00
979.81	5887.00
980.24	6114.00
980.67	6106.00
981.09	6176.00
981.52	6156.00
981.95	6130.00
982.38	6210.00
982.80	6222.00
983.23	6312.00
983.66	6324.00
984.08	6137.00
984.51	6158.00
984.94	6134.00
985.37	6185.00
985.79	6106.00
986.22	6034.00
986.65	5972.00
987.07	6014.00
987.50	5948.00
987.93	5923.00
988.35	5988.00
988.78	5976.00
989.21	5970.00
989.63	6056.00
990.06	6124.00
990.49	6139.00
990.91	6284.00
991.34	6200.00
991.77	6224.00
992.19	6224.00
992.62	6281.00
993.05	6228.00
993.47	6184.00
993.90	6180.00
994.32	6124.00
994.75	6025.00
995.18	5882.00
995.60	5860.00
996.03	5816.00
996.45	5940.00
996.88	5974.00
997.31	5886.00
997.73	5898.00
998.16	5827.00
998.58	5958.00
999.01	5890.00
999.44	5970.00
999.86	5996.00
1000.29	5982.00
1000.71	6057.00
1001.14	6020.00
1001.56	6049.00
1001.99	6058.00
1002.41	5942.00
1002.84	5982.00
1003.27	5808.00
1003.69	5752.00
1004.12	5809.00
1004.54	5761.00
1004.97	5608.00
1005.39	5542.00
1005.82	5668.00
1006.24	5578.00
1006.67	5540.00
1007.09	5561.00
1007.52	5608.00
1007.94	5560.00
1008.37	5816.00
1008.79	5658.00
1009.22	5694.00
1009.64	5606.00
1010.07	5640.00
1010.49	5696.00
1010.92	5682.00
1011.34	5652.00
1011.77	5652.00
1012.19	5672.00
1012.62	5660.00
1013.04	5550.00
1013.46	5622.00
1013.89	5416.00
1014.31	5460.00
1014.74	5351.00
1015.16	5377.00
1015.59	5330.00
1016.01	5406.00
1016.44	5356.00
1016.86	6342.00
1017.28	5354.00
1017.71	5386.00
1018.13	5594.00
1018.56	5551.00
1018.98	5562.00
1019.40	5518.00
1019.83	5502.00
1020.25	5562.00
1020.68	5558.00
1021.10	5676.00
1021.52	5572.00
1021.95	5828.00
1022.37	5649.00
1022.79	5641.00
1023.22	5616.00
1023.64	5614.00
1024.07	5525.00
1024.49	5580.00
1024.91	5496.00
1025.34	5395.00
1025.76	5548.00
1026.18	5392.00
1026.61	5413.00
1027.03	5371.00
1027.45	5310.00
1027.88	5347.00
1028.30	5454.00
1028.72	5432.00
1029.15	5422.00
1029.57	5476.00
1029.99	5516.00
1030.41	5394.00
1030.84	5484.00
1031.26	5486.00
1031.68	5388.00
1032.11	5390.00
1032.53	5338.00
1032.95	5311.00
1033.37	5306.00
1033.80	5388.00
1034.22	5198.00
1034.64	5442.00
1035.06	5172.00
1035.49	5084.00
1035.91	5108.00
1036.33	5023.00
1036.75	5104.00
1037.18	5126.00
1037.60	5096.00
1038.02	5134.00
1038.44	5170.00
1038.87	5046.00
1039.29	5025.00
1039.71	5092.00
1040.13	5046.00
1040.55	5102.00
1040.98	5154.00
1041.40	5076.00
1041.82	5120.00
1042.24	5052.00
1042.66	5029.00
1043.09	4956.00
1043.51	4946.00
1043.93	4908.00
1044.35	4808.00
1044.77	4888.00
1045.20	4859.00
1045.62	4774.00
1046.04	4848.00
1046.46	4797.00
1046.88	4752.00
1047.30	4737.00
1047.72	4768.00
1048.15	4788.00
1048.57	4716.00
1048.99	4712.00
1049.41	4736.00
1049.83	4739.00
1050.25	4758.00
1050.67	4722.00
1051.09	4724.00
1051.52	4690.00
1051.94	4539.00
1052.36	4692.00
1052.78	4572.00
1053.20	4638.00
1053.62	4672.00
1054.04	4650.00
1054.46	4615.00
1054.88	4712.00
1055.30	4656.00
1055.72	4620.00
1056.14	4570.00
1056.57	4755.00
1056.99	4422.00
1057.41	4501.00
1057.83	4510.00
1058.25	4460.00
1058.67	4372.00
1059.09	4420.00
1059.51	4434.00
1059.93	4430.00
1060.35	4380.00
1060.77	4422.00
1061.19	4464.00
1061.61	4374.00
1062.03	4354.00
1062.45	4364.00
1062.87	4409.00
1063.29	4424.00
1063.71	4375.00
1064.13	4288.00
1064.55	4218.00
1064.97	4392.00
1065.39	4322.00
1065.81	4354.00
1066.23	4255.00
1066.65	4232.00
1067.07	4348.00
1067.49	4260.00
1067.91	4269.00
1068.33	4184.00
1068.75	4250.00
1069.17	4291.00
1069.59	4264.00
1070.00	4144.00
1070.42	4233.00
1070.84	4194.00
1071.26	4124.00
1071.68	4114.00
1072.10	4236.00
1072.52	4184.00
1072.94	4068.00
1073.36	4142.00
1073.78	4166.00
1074.20	4142.00
1074.62	4100.00
1075.03	4058.00
1075.45	4100.00
1075.87	4172.00
1076.29	4108.00
1076.71	4161.00
1077.13	4178.00
1077.55	3996.00
1077.97	4112.00
1078.38	4021.00
1078.80	4046.00
1079.22	4082.00
1079.64	4024.00
1080.06	4044.00
1080.48	3989.00
1080.89	4003.00
1081.31	3993.00
1081.73	3995.00
1082.15	3991.00
1082.57	4043.00
1082.99	3988.00
1083.40	3940.00
1083.82	4033.00
1084.24	3940.00
1084.66	3934.00
1085.08	3932.00
1085.49	3872.00
1085.91	3972.00
1086.33	5374.00
1086.75	3977.00
1087.17	3916.00
1087.58	3896.00
1088.00	3918.00
1088.42	3930.00
1088.84	3884.00
1089.25	3866.00
1089.67	3952.00
1090.09	3858.00
1090.51	3826.00
1090.92	3934.00
1091.34	3854.00
1091.76	3823.00
1092.18	3835.00
1092.59	3828.00
1093.01	3852.00
1093.43	3836.00
1093.84	3832.00
1094.26	3794.00
1094.68	3813.00
1095.10	3744.00
1095.51	3789.00
1095.93	3768.00
1096.35	3846.00
1096.76	3852.00
1097.18	3814.00
1097.60	3726.00
1098.01	3794.00
1098.43	3748.00
1098.85	3777.00
1099.26	3724.00
1099.68	3773.00
1100.10	3678.00
1100.51	3680.00
1100.93	3723.00
1101.35	3698.00
1101.76	3740.00
1102.18	4280.00
1102.60	3774.00
1103.01	3592.00
1103.43	3704.00
1103.84	3680.00
1104.26	3644.00
1104.68	3692.00
1105.09	3565.00
1105.51	3620.00
1105.92	3731.00
1106.34	3602.00
1106.76	3634.00
1107.17	3670.00
1107.59	3666.00
1108.00	3560.00
1108.42	3582.00
1108.83	3576.00
1109.25	3583.00
1109.67	3550.00
1110.08	3566.00
1110.50	3542.00
1110.91	3580.00
1111.33	3540.00
1111.74	3545.00
1112.16	3568.00
1112.57	3582.00
1112.99	3507.00
1113.41	3576.00
1113.82	3540.00
1114.24	3565.00
1114.65	3534.00
1115.07	3440.00
1115.48	3302.00
1115.90	2185.00
1116.31	2216.00
1116.73	2221.00
1117.14	2221.00
>>>>>End Processed Spectral Data<<<<<
