SpectraSuite Data File
++++++++++++++++++++++++++++++++++++
Date: Tue May 29 13:19:43 EEST 2018
User: CanSEE
Dark Spectrum Present: No
Reference Spectrum Present: No
Number of Sampled Component Spectra: 1
Spectrometers: MAYP11278
Integration Time (usec): 220000 (MAYP11278)
Spectra Averaged: 1 (MAYP11278)
Boxcar Smoothing: 0 (MAYP11278)
Correct for Electrical Dark: No (MAYP11278)
Strobe/Lamp Enabled: No (MAYP11278)
Correct for Detector Non-linearity: No (MAYP11278)
Correct for Stray Light: No (MAYP11278)
Number of Pixels in Processed Spectrum: 2068
>>>>>Begin Processed Spectral Data<<<<<
187.82	2349.00
188.30	2238.00
188.78	2221.00
189.26	2216.00
189.73	3434.00
190.21	3555.00
190.69	3740.00
191.17	3724.00
191.64	3775.00
192.12	3734.00
192.60	3708.00
193.07	3638.00
193.55	3709.00
194.03	3752.00
194.51	3755.00
194.98	3706.00
195.46	3763.00
195.94	3678.00
196.42	3716.00
196.89	3814.00
197.37	3732.00
197.85	3656.00
198.32	3700.00
198.80	3704.00
199.28	3746.00
199.76	3768.00
200.23	3735.00
200.71	3718.00
201.19	3788.00
201.66	3748.00
202.14	3763.00
202.62	3684.00
203.09	3712.00
203.57	3705.00
204.05	3764.00
204.53	3816.00
205.00	3745.00
205.48	3711.00
205.96	3819.00
206.43	3732.00
206.91	3728.00
207.39	3851.00
207.86	3749.00
208.34	3759.00
208.82	3716.00
209.29	3744.00
209.77	3769.00
210.25	3734.00
210.72	3727.00
211.20	3774.00
211.68	3741.00
212.15	3710.00
212.63	3818.00
213.11	3797.00
213.58	3733.00
214.06	3804.00
214.53	3713.00
215.01	3813.00
215.49	3769.00
215.96	3798.00
216.44	3741.00
216.92	3746.00
217.39	3730.00
217.87	3752.00
218.35	3809.00
218.82	3662.00
219.30	3684.00
219.77	3754.00
220.25	3751.00
220.73	3863.00
221.20	3747.00
221.68	3789.00
222.15	3706.00
222.63	3790.00
223.11	3746.00
223.58	3775.00
224.06	3778.00
224.53	3738.00
225.01	3698.00
225.49	3782.00
225.96	3674.00
226.44	3726.00
226.91	3816.00
227.39	3739.00
227.87	3802.00
228.34	3783.00
228.82	3791.00
229.29	3746.00
229.77	3729.00
230.24	3783.00
230.72	3765.00
231.20	3817.00
231.67	3734.00
232.15	3714.00
232.62	3682.00
233.10	3708.00
233.57	3803.00
234.05	3902.00
234.53	3751.00
235.00	3736.00
235.48	3725.00
235.95	3752.00
236.43	3789.00
236.90	3848.00
237.38	3747.00
237.85	3758.00
238.33	3729.00
238.80	3793.00
239.28	3732.00
239.75	3674.00
240.23	3784.00
240.71	3847.00
241.18	3773.00
241.66	3757.00
242.13	3799.00
242.61	3816.00
243.08	3700.00
243.56	3750.00
244.03	3761.00
244.51	3852.00
244.98	3743.00
245.46	3784.00
245.93	5778.00
246.41	3650.00
246.88	3793.00
247.36	3752.00
247.83	3774.00
248.31	3774.00
248.78	3706.00
249.26	3764.00
249.73	3805.00
250.21	3767.00
250.68	3828.00
251.16	3755.00
251.63	3865.00
252.10	3816.00
252.58	3696.00
253.05	3819.00
253.53	3761.00
254.00	3778.00
254.48	3787.00
254.95	3804.00
255.43	3822.00
255.90	3759.00
256.38	3775.00
256.85	3817.00
257.33	3788.00
257.80	3922.00
258.27	3808.00
258.75	3731.00
259.22	3754.00
259.70	3751.00
260.17	3853.00
260.65	3745.00
261.12	3722.00
261.59	3814.00
262.07	3810.00
262.54	3783.00
263.02	3760.00
263.49	3708.00
263.97	3811.00
264.44	3826.00
264.91	3754.00
265.39	3814.00
265.86	3790.00
266.34	3818.00
266.81	3770.00
267.28	3784.00
267.76	3776.00
268.23	3793.00
268.71	3707.00
269.18	3727.00
269.65	3725.00
270.13	3766.00
270.60	3830.00
271.08	3807.00
271.55	3801.00
272.02	3713.00
272.50	3753.00
272.97	3670.00
273.44	3777.00
273.92	3938.00
274.39	3762.00
274.87	3842.00
275.34	3732.00
275.81	3738.00
276.29	3745.00
276.76	3814.00
277.23	3670.00
277.71	3680.00
278.18	3609.00
278.65	3890.00
279.13	3661.00
279.60	3753.00
280.07	4010.00
280.55	3966.00
281.02	4068.00
281.50	3808.00
281.97	3898.00
282.44	3793.00
282.91	3840.00
283.39	3817.00
283.86	3825.00
284.33	3715.00
284.81	3832.00
285.28	3807.00
285.75	3816.00
286.23	3792.00
286.70	3753.00
287.17	3805.00
287.65	3856.00
288.12	3761.00
288.59	3822.00
289.07	3692.00
289.54	3882.00
290.01	3749.00
290.48	3804.00
290.96	3769.00
291.43	3834.00
291.90	3878.00
292.38	3739.00
292.85	3890.00
293.32	3820.00
293.79	3839.00
294.27	3790.00
294.74	3788.00
295.21	3774.00
295.69	3816.00
296.16	3932.00
296.63	3880.00
297.10	3846.00
297.58	3799.00
298.05	3845.00
298.52	3775.00
298.99	3843.00
299.47	3778.00
299.94	3843.00
300.41	3789.00
300.88	3833.00
301.36	3862.00
301.83	3841.00
302.30	3729.00
302.77	3846.00
303.25	3828.00
303.72	3795.00
304.19	3773.00
304.66	3749.00
305.13	3790.00
305.61	3836.00
306.08	3754.00
306.55	3837.00
307.02	3747.00
307.49	3790.00
307.97	3812.00
308.44	3772.00
308.91	3806.00
309.38	3816.00
309.86	3772.00
310.33	3809.00
310.80	3828.00
311.27	3796.00
311.74	3818.00
312.21	3827.00
312.69	3878.00
313.16	3753.00
313.63	3827.00
314.10	3803.00
314.57	3769.00
315.05	3809.00
315.52	3866.00
315.99	3811.00
316.46	3838.00
316.93	3830.00
317.40	3832.00
317.88	3960.00
318.35	3795.00
318.82	3792.00
319.29	3721.00
319.76	3832.00
320.23	3885.00
320.70	3854.00
321.18	3768.00
321.65	3729.00
322.12	3780.00
322.59	3907.00
323.06	3804.00
323.53	3942.00
324.00	3729.00
324.48	3847.00
324.95	3849.00
325.42	3786.00
325.89	3777.00
326.36	3761.00
326.83	3846.00
327.30	3841.00
327.77	3799.00
328.24	3820.00
328.72	3807.00
329.19	3848.00
329.66	3791.00
330.13	3807.00
330.60	3865.00
331.07	3847.00
331.54	3952.00
332.01	3720.00
332.48	3928.00
332.95	3872.00
333.43	3842.00
333.90	3881.00
334.37	3818.00
334.84	3858.00
335.31	4028.00
335.78	3778.00
336.25	3813.00
336.72	3764.00
337.19	3817.00
337.66	3809.00
338.13	3793.00
338.60	3910.00
339.07	3866.00
339.54	3765.00
340.01	3788.00
340.49	3757.00
340.96	3810.00
341.43	3822.00
341.90	3779.00
342.37	3766.00
342.84	3810.00
343.31	3812.00
343.78	3737.00
344.25	3770.00
344.72	3715.00
345.19	3794.00
345.66	3776.00
346.13	3731.00
346.60	3743.00
347.07	3920.00
347.54	3778.00
348.01	3836.00
348.48	3820.00
348.95	3736.00
349.42	3800.00
349.89	3800.00
350.36	3805.00
350.83	3738.00
351.30	3796.00
351.77	3872.00
352.24	3830.00
352.71	3767.00
353.18	3787.00
353.65	3836.00
354.12	3760.00
354.59	3829.00
355.06	3782.00
355.53	3886.00
356.00	3774.00
356.47	3876.00
356.94	3759.00
357.41	3934.00
357.88	3818.00
358.35	3702.00
358.82	3737.00
359.28	3766.00
359.75	3771.00
360.22	3846.00
360.69	3900.00
361.16	3758.00
361.63	3794.00
362.10	3826.00
362.57	3796.00
363.04	3777.00
363.51	3981.00
363.98	3826.00
364.45	3726.00
364.92	3822.00
365.39	3785.00
365.86	3745.00
366.32	3823.00
366.79	3798.00
367.26	4746.00
367.73	4182.00
368.20	3754.00
368.67	3873.00
369.14	3744.00
369.61	3876.00
370.08	3862.00
370.55	3816.00
371.02	4570.00
371.48	3813.00
371.95	3802.00
372.42	3753.00
372.89	3845.00
373.36	3806.00
373.83	3771.00
374.30	3761.00
374.77	3844.00
375.23	3734.00
375.70	3865.00
376.17	3804.00
376.64	3751.00
377.11	3746.00
377.58	3824.00
378.05	3818.00
378.51	3823.00
378.98	3808.00
379.45	3834.00
379.92	3842.00
380.39	3952.00
380.86	3791.00
381.33	3883.00
381.79	3882.00
382.26	3756.00
382.73	3821.00
383.20	3790.00
383.67	3830.00
384.14	3826.00
384.60	4088.00
385.07	3791.00
385.54	3806.00
386.01	3828.00
386.48	3900.00
386.94	3806.00
387.41	3731.00
387.88	3874.00
388.35	3800.00
388.82	3896.00
389.28	3807.00
389.75	3841.00
390.22	3820.00
390.69	3869.00
391.16	3843.00
391.62	3828.00
392.09	3865.00
392.56	3789.00
393.03	3870.00
393.50	3973.00
393.96	3851.00
394.43	3830.00
394.90	3757.00
395.37	3862.00
395.83	4043.00
396.30	3752.00
396.77	3833.00
397.24	3872.00
397.70	3755.00
398.17	3792.00
398.64	3822.00
399.11	3764.00
399.57	3864.00
400.04	3792.00
400.51	3832.00
400.98	3747.00
401.44	3820.00
401.91	3761.00
402.38	3812.00
402.84	3808.00
403.31	3908.00
403.78	3803.00
404.25	3876.00
404.71	3876.00
405.18	3862.00
405.65	3765.00
406.12	3868.00
406.58	3836.00
407.05	3855.00
407.52	3804.00
407.98	4420.00
408.45	3782.00
408.92	3759.00
409.38	3884.00
409.85	3773.00
410.32	3843.00
410.78	3769.00
411.25	3924.00
411.72	3782.00
412.18	3724.00
412.65	3801.00
413.12	3750.00
413.59	3830.00
414.05	3829.00
414.52	3897.00
414.98	3795.00
415.45	3878.00
415.92	3839.00
416.38	3804.00
416.85	3854.00
417.32	3818.00
417.78	3804.00
418.25	3785.00
418.72	3807.00
419.18	3832.00
419.65	3784.00
420.12	3849.00
420.58	3739.00
421.05	3802.00
421.51	3791.00
421.98	3810.00
422.45	3757.00
422.91	3834.00
423.38	3834.00
423.85	3814.00
424.31	3826.00
424.78	3789.00
425.24	3836.00
425.71	3857.00
426.18	3761.00
426.64	3866.00
427.11	3839.00
427.57	3833.00
428.04	3745.00
428.51	3857.00
428.97	3827.00
429.44	3818.00
429.90	3828.00
430.37	3948.00
430.83	3739.00
431.30	3780.00
431.77	3854.00
432.23	3908.00
432.70	3808.00
433.16	3771.00
433.63	3828.00
434.09	3779.00
434.56	3849.00
435.03	3794.00
435.49	3870.00
435.96	3821.00
436.42	3795.00
436.89	3906.00
437.35	3871.00
437.82	3802.00
438.28	3811.00
438.75	3779.00
439.21	4019.00
439.68	3852.00
440.14	3889.00
440.61	3851.00
441.07	3766.00
441.54	3834.00
442.00	3974.00
442.47	3768.00
442.94	3862.00
443.40	3830.00
443.87	3796.00
444.33	3926.00
444.80	3813.00
445.26	3809.00
445.73	3832.00
446.19	3792.00
446.65	3844.00
447.12	3825.00
447.58	3789.00
448.05	3795.00
448.51	3853.00
448.98	3800.00
449.44	3808.00
449.91	3806.00
450.37	3750.00
450.84	3842.00
451.30	3770.00
451.77	3859.00
452.23	3780.00
452.70	3839.00
453.16	3811.00
453.62	3782.00
454.09	3785.00
454.55	3803.00
455.02	3797.00
455.48	3838.00
455.95	3844.00
456.41	3748.00
456.88	3833.00
457.34	3812.00
457.80	3780.00
458.27	3732.00
458.73	3779.00
459.20	3794.00
459.66	3785.00
460.13	3744.00
460.59	3712.00
461.05	3785.00
461.52	3762.00
461.98	3684.00
462.45	3656.00
462.91	3741.00
463.37	3692.00
463.84	3739.00
464.30	3692.00
464.76	3676.00
465.23	3680.00
465.69	3756.00
466.16	3684.00
466.62	3672.00
467.08	3713.00
467.55	3694.00
468.01	3734.00
468.48	3732.00
468.94	3694.00
469.40	3638.00
469.87	3692.00
470.33	3688.00
470.79	3658.00
471.26	3660.00
471.72	3598.00
472.18	3620.00
472.65	3634.00
473.11	3721.00
473.57	3674.00
474.04	3610.00
474.50	3632.00
474.96	3588.00
475.43	3660.00
475.89	3650.00
476.35	3652.00
476.82	3662.00
477.28	3647.00
477.74	3686.00
478.21	3674.00
478.67	3680.00
479.13	3612.00
479.59	3716.00
480.06	3676.00
480.52	3643.00
480.98	3612.00
481.45	3622.00
481.91	3636.00
482.37	3558.00
482.84	3617.00
483.30	3576.00
483.76	3632.00
484.22	3710.00
484.69	3674.00
485.15	3592.00
485.61	3536.00
486.07	3608.00
486.54	3538.00
487.00	3612.00
487.46	3566.00
487.92	3596.00
488.39	3615.00
488.85	3617.00
489.31	3640.00
489.77	3718.00
490.24	3526.00
490.70	3611.00
491.16	3580.00
491.62	3562.00
492.09	3542.00
492.55	3676.00
493.01	3642.00
493.47	3606.00
493.94	3610.00
494.40	3596.00
494.86	3626.00
495.32	3625.00
495.78	3622.00
496.25	3588.00
496.71	3614.00
497.17	3733.00
497.63	3662.00
498.09	3626.00
498.56	3641.00
499.02	3640.00
499.48	3803.00
499.94	3644.00
500.40	3644.00
500.87	3656.00
501.33	3646.00
501.79	3690.00
502.25	3664.00
502.71	4024.00
503.17	3718.00
503.64	3715.00
504.10	3692.00
504.56	3734.00
505.02	3748.00
505.48	3721.00
505.94	3741.00
506.40	3807.00
506.87	3774.00
507.33	3800.00
507.79	3821.00
508.25	3745.00
508.71	3785.00
509.17	3820.00
509.63	3840.00
510.10	3886.00
510.56	3833.00
511.02	3958.00
511.48	4008.00
511.94	3894.00
512.40	3918.00
512.86	4010.00
513.32	4037.00
513.78	3954.00
514.25	4078.00
514.71	4883.00
515.17	4025.00
515.63	4124.00
516.09	4144.00
516.55	4150.00
517.01	4330.00
517.47	4255.00
517.93	4268.00
518.39	4470.00
518.85	4352.00
519.32	4334.00
519.78	4468.00
520.24	4466.00
520.70	4594.00
521.16	4642.00
521.62	4672.00
522.08	4704.00
522.54	4778.00
523.00	4860.00
523.46	4936.00
523.92	4921.00
524.38	5136.00
524.84	5030.00
525.30	5140.00
525.76	5144.00
526.22	5009.00
526.68	5022.00
527.14	5160.00
527.60	5279.00
528.06	5408.00
528.52	5498.00
528.98	5468.00
529.44	5416.00
529.90	5588.00
530.36	5590.00
530.82	5593.00
531.28	5714.00
531.74	5596.00
532.20	5579.00
532.66	5618.00
533.12	5732.00
533.58	5791.00
534.04	5783.00
534.50	5804.00
534.96	5873.00
535.42	6038.00
535.88	5916.00
536.34	5978.00
536.80	5800.00
537.26	6030.00
537.72	5994.00
538.18	5906.00
538.64	6050.00
539.10	6084.00
539.56	6175.00
540.02	5894.00
540.48	6076.00
540.94	6068.00
541.40	6084.00
541.86	6136.00
542.32	6086.00
542.78	6066.00
543.24	6250.00
543.69	6161.00
544.15	6238.00
544.61	6254.00
545.07	6138.00
545.53	6194.00
545.99	6200.00
546.45	6206.00
546.91	6264.00
547.37	6232.00
547.83	6232.00
548.29	6253.00
548.74	6336.00
549.20	6337.00
549.66	6432.00
550.12	6331.00
550.58	6322.00
551.04	6374.00
551.50	6430.00
551.96	6480.00
552.42	6374.00
552.87	6356.00
553.33	6442.00
553.79	6375.00
554.25	6355.00
554.71	6464.00
555.17	6436.00
555.63	6452.00
556.08	6366.00
556.54	6363.00
557.00	6256.00
557.46	6299.00
557.92	6328.00
558.38	6138.00
558.83	6090.00
559.29	6145.00
559.75	6050.00
560.21	6108.00
560.67	6250.00
561.13	6164.00
561.58	6110.00
562.04	6046.00
562.50	6029.00
562.96	6074.00
563.42	6024.00
563.87	5916.00
564.33	5914.00
564.79	5944.00
565.25	5860.00
565.71	5726.00
566.16	5886.00
566.62	5732.00
567.08	5718.00
567.54	5793.00
568.00	5696.00
568.45	5567.00
568.91	5500.00
569.37	5572.00
569.83	5528.00
570.28	5419.00
570.74	5425.00
571.20	5370.00
571.66	5296.00
572.11	5380.00
572.57	5364.00
573.03	5244.00
573.49	5279.00
573.94	5236.00
574.40	5278.00
574.86	5096.00
575.32	5000.00
575.77	5075.00
576.23	4988.00
576.69	5094.00
577.15	5000.00
577.60	5011.00
578.06	4890.00
578.52	4986.00
578.97	4956.00
579.43	4902.00
579.89	4966.00
580.34	4884.00
580.80	4858.00
581.26	4851.00
581.72	4868.00
582.17	4834.00
582.63	4780.00
583.09	4820.00
583.54	4832.00
584.00	4765.00
584.46	4767.00
584.91	4710.00
585.37	4813.00
585.83	4720.00
586.28	4704.00
586.74	4726.00
587.20	4732.00
587.65	4710.00
588.11	4584.00
588.57	4622.00
589.02	4498.00
589.48	4480.00
589.94	4539.00
590.39	4622.00
590.85	4591.00
591.30	4600.00
591.76	4650.00
592.22	4544.00
592.67	4588.00
593.13	4592.00
593.59	4616.00
594.04	4503.00
594.50	4549.00
594.95	4630.00
595.41	4542.00
595.87	4485.00
596.32	4633.00
596.78	4602.00
597.23	4586.00
597.69	4560.00
598.15	4466.00
598.60	4568.00
599.06	4560.00
599.51	4532.00
599.97	4542.00
600.43	4584.00
600.88	4551.00
601.34	4529.00
601.79	4381.00
602.25	4600.00
602.70	4499.00
603.16	4524.00
603.61	4416.00
604.07	4460.00
604.53	4527.00
604.98	4418.00
605.44	4497.00
605.89	4509.00
606.35	4386.00
606.80	4458.00
607.26	4380.00
607.71	4386.00
608.17	4456.00
608.62	4392.00
609.08	4516.00
609.53	4456.00
609.99	4321.00
610.44	4366.00
610.90	4330.00
611.35	4248.00
611.81	4444.00
612.26	4300.00
612.72	4292.00
613.17	4456.00
613.63	4206.00
614.08	4162.00
614.54	4186.00
614.99	4200.00
615.45	4216.00
615.90	4200.00
616.36	4116.00
616.81	4146.00
617.27	4196.00
617.72	4254.00
618.18	4156.00
618.63	4136.00
619.09	4134.00
619.54	4277.00
619.99	4166.00
620.45	4241.00
620.90	4226.00
621.36	4134.00
621.81	4168.00
622.27	4226.00
622.72	4198.00
623.18	4094.00
623.63	4116.00
624.08	4218.00
624.54	4059.00
624.99	4116.00
625.45	4128.00
625.90	4112.00
626.35	4168.00
626.81	4164.00
627.26	4042.00
627.72	4142.00
628.17	4148.00
628.62	4066.00
629.08	4128.00
629.53	4112.00
629.99	4090.00
630.44	4138.00
630.89	4097.00
631.35	4106.00
631.80	4124.00
632.26	4129.00
632.71	4105.00
633.16	4098.00
633.62	4056.00
634.07	4096.00
634.52	4098.00
634.98	4090.00
635.43	4095.00
635.88	4020.00
636.34	4066.00
636.79	4036.00
637.24	3983.00
637.70	4065.00
638.15	4094.00
638.60	4004.00
639.06	4030.00
639.51	3985.00
639.96	3930.00
640.42	4022.00
640.87	4010.00
641.32	3890.00
641.78	3899.00
642.23	3942.00
642.68	3904.00
643.14	3860.00
643.59	3956.00
644.04	3868.00
644.49	3823.00
644.95	3912.00
645.40	3832.00
645.85	3828.00
646.31	3854.00
646.76	3867.00
647.21	3850.00
647.66	3860.00
648.12	3826.00
648.57	3792.00
649.02	3837.00
649.47	3819.00
649.93	4016.00
650.38	3743.00
650.83	3763.00
651.28	3726.00
651.74	3790.00
652.19	3756.00
652.64	3743.00
653.09	3757.00
653.55	3758.00
654.00	3764.00
654.45	3769.00
654.90	3734.00
655.35	3720.00
655.81	3823.00
656.26	3676.00
656.71	3717.00
657.16	3730.00
657.62	3758.00
658.07	3727.00
658.52	3736.00
658.97	3717.00
659.42	3900.00
659.88	3714.00
660.33	3844.00
660.78	3746.00
661.23	3654.00
661.68	3716.00
662.13	3696.00
662.59	3620.00
663.04	3720.00
663.49	3692.00
663.94	3692.00
664.39	3690.00
664.84	3658.00
665.30	3694.00
665.75	3636.00
666.20	3658.00
666.65	3688.00
667.10	3844.00
667.55	3756.00
668.00	3588.00
668.46	3658.00
668.91	3652.00
669.36	3791.00
669.81	3558.00
670.26	3642.00
670.71	3707.00
671.16	3647.00
671.61	3722.00
672.06	3742.00
672.52	3622.00
672.97	3658.00
673.42	3704.00
673.87	3846.00
674.32	3648.00
674.77	3741.00
675.22	3596.00
675.67	3630.00
676.12	3668.00
676.57	3664.00
677.02	3672.00
677.47	3630.00
677.93	3775.00
678.38	3610.00
678.83	3657.00
679.28	3688.00
679.73	3622.00
680.18	3630.00
680.63	3642.00
681.08	3596.00
681.53	3622.00
681.98	3662.00
682.43	3666.00
682.88	3694.00
683.33	3696.00
683.78	3702.00
684.23	3766.00
684.68	3726.00
685.13	3704.00
685.58	3736.00
686.03	3708.00
686.48	3654.00
686.93	3719.00
687.38	3724.00
687.83	3744.00
688.28	3748.00
688.73	3985.00
689.18	3874.00
689.63	3764.00
690.08	3858.00
690.53	3918.00
690.98	3942.00
691.43	4042.00
691.88	4029.00
692.33	4090.00
692.78	4182.00
693.23	4312.00
693.68	4338.00
694.13	4368.00
694.58	4491.00
695.03	4851.00
695.48	4757.00
695.93	4874.00
696.38	5086.00
696.83	5182.00
697.28	5248.00
697.72	5378.00
698.17	5569.00
698.62	5778.00
699.07	5945.00
699.52	6080.00
699.97	6190.00
700.42	6494.00
700.87	6708.00
701.32	7004.00
701.77	6956.00
702.22	7234.00
702.67	7424.00
703.11	7732.00
703.56	8008.00
704.01	8152.00
704.46	8514.00
704.91	8798.00
705.36	9032.00
705.81	9208.00
706.26	9344.00
706.70	9670.00
707.15	9878.00
707.60	10210.00
708.05	10428.00
708.50	10676.00
708.95	10846.00
709.40	11134.00
709.84	11474.00
710.29	11766.00
710.74	11938.00
711.19	12260.00
711.64	12588.00
712.09	12751.00
712.53	13022.00
712.98	13366.00
713.43	13570.00
713.88	13882.00
714.33	14102.00
714.78	14255.00
715.22	14358.00
715.67	14659.00
716.12	14515.00
716.57	14377.00
717.02	13928.00
717.46	13965.00
717.91	14019.00
718.36	14015.00
718.81	13912.00
719.26	14215.00
719.70	14537.00
720.15	14812.00
720.60	15642.00
721.05	16780.00
721.49	17510.00
721.94	17988.00
722.39	18115.00
722.84	17958.00
723.28	17452.00
723.73	17552.00
724.18	17706.00
724.63	18038.00
725.07	18270.00
725.52	18776.00
725.97	19171.00
726.42	19700.00
726.86	20090.00
727.31	19816.00
727.76	20154.00
728.21	20620.00
728.65	20854.00
729.10	20846.00
729.55	21446.00
729.99	21992.00
730.44	22126.00
730.89	22742.00
731.33	23348.00
731.78	23964.00
732.23	24735.00
732.68	25007.00
733.12	25700.00
733.57	26050.00
734.02	26779.00
734.46	26994.00
734.91	27282.00
735.36	27422.00
735.80	27810.00
736.25	28047.00
736.70	28258.00
737.14	28798.00
737.59	29187.00
738.04	29086.00
738.48	28968.00
738.93	29399.00
739.37	29796.00
739.82	30280.00
740.27	30444.00
740.71	30588.00
741.16	30651.00
741.61	31060.00
742.05	31213.00
742.50	31450.00
742.94	31767.00
743.39	31930.00
743.84	32129.00
744.28	32030.00
744.73	32444.00
745.18	32700.00
745.62	32970.00
746.07	33088.00
746.51	32892.00
746.96	33222.00
747.40	33048.00
747.85	33128.00
748.30	33182.00
748.74	33022.00
749.19	33154.00
749.63	33316.00
750.08	33199.00
750.52	33212.00
750.97	33238.00
751.42	33616.00
751.86	33380.00
752.31	33566.00
752.75	33410.00
753.20	33290.00
753.64	33536.00
754.09	33487.00
754.53	33696.00
754.98	33584.00
755.42	33530.00
755.87	33717.00
756.31	33648.00
756.76	33356.00
757.20	33080.00
757.65	32792.00
758.09	32450.00
758.54	31186.00
758.98	27674.00
759.43	22052.00
759.87	16148.00
760.32	12916.00
760.76	12898.00
761.21	15747.00
761.65	18618.00
762.10	19409.00
762.54	18351.00
762.99	17636.00
763.43	18123.00
763.88	19294.00
764.32	20784.00
764.77	22529.00
765.21	24097.00
765.66	25519.00
766.10	26846.00
766.54	28004.00
766.99	29372.00
767.43	30246.00
767.88	31024.00
768.32	31623.00
768.77	31842.00
769.21	32456.00
769.66	32718.00
770.10	33005.00
770.54	33475.00
770.99	33374.00
771.43	33564.00
771.88	33280.00
772.32	33384.00
772.76	33144.00
773.21	33227.00
773.65	33068.00
774.10	32812.00
774.54	32852.00
774.98	32744.00
775.43	33480.00
775.87	33454.00
776.31	33672.00
776.76	33644.00
777.20	33436.00
777.65	33368.00
778.09	33132.00
778.53	32932.00
778.98	33014.00
779.42	33052.00
779.86	32754.00
780.31	32962.00
780.75	32980.00
781.19	33222.00
781.64	33256.00
782.08	33296.00
782.52	33142.00
782.97	32854.00
783.41	32731.00
783.85	32442.00
784.30	32386.00
784.74	32142.00
785.18	32209.00
785.63	32041.00
786.07	32134.00
786.51	32194.00
786.95	32334.00
787.40	32110.00
787.84	32084.00
788.28	31820.00
788.73	31596.00
789.17	31244.00
789.61	31008.00
790.05	30946.00
790.50	30578.00
790.94	30658.00
791.38	30600.00
791.82	30760.00
792.27	30834.00
792.71	30682.00
793.15	31160.00
793.59	30944.00
794.04	30736.00
794.48	30584.00
794.92	30224.00
795.36	29930.00
795.81	29708.00
796.25	29818.00
796.69	29868.00
797.13	30144.00
797.57	30358.00
798.02	30556.00
798.46	30699.00
798.90	30586.00
799.34	30340.00
799.79	30234.00
800.23	29638.00
800.67	29570.00
801.11	29329.00
801.55	29008.00
801.99	29014.00
802.44	29106.00
802.88	29308.00
803.32	29690.00
803.76	29514.00
804.20	29827.00
804.64	29794.00
805.09	29704.00
805.53	29910.00
805.97	29520.00
806.41	29216.00
806.85	29038.00
807.29	28553.00
807.74	28561.00
808.18	28506.00
808.62	28288.00
809.06	28360.00
809.50	28549.00
809.94	28346.00
810.38	28548.00
810.82	28688.00
811.27	28562.00
811.71	27984.00
812.15	27523.00
812.59	26525.00
813.03	26241.00
813.47	25094.00
813.91	24670.00
814.35	24343.00
814.79	24003.00
815.23	23804.00
815.67	23424.00
816.12	23794.00
816.56	23672.00
817.00	23709.00
817.44	24108.00
817.88	24164.00
818.32	23811.00
818.76	23858.00
819.20	23983.00
819.64	24140.00
820.08	24304.00
820.52	24862.00
820.96	25400.00
821.40	24807.00
821.84	24000.00
822.28	22882.00
822.72	22686.00
823.16	22750.00
823.60	23976.00
824.04	25446.00
824.48	25674.00
824.92	25690.00
825.36	25694.00
825.80	25188.00
826.24	25130.00
826.68	24844.00
827.12	24886.00
827.56	24436.00
828.00	24162.00
828.44	24664.00
828.88	24782.00
829.32	25000.00
829.76	25336.00
830.20	25604.00
830.64	25344.00
831.08	25178.00
831.52	24756.00
831.96	24430.00
832.40	24142.00
832.84	24508.00
833.28	24582.00
833.72	25206.00
834.16	25509.00
834.60	26206.00
835.04	26397.00
835.48	26722.00
835.91	26686.00
836.35	26458.00
836.79	26337.00
837.23	26294.00
837.67	25682.00
838.11	25724.00
838.55	25810.00
838.99	25766.00
839.43	26060.00
839.87	26398.00
840.30	26492.00
840.74	26882.00
841.18	27242.00
841.62	27484.00
842.06	27343.00
842.50	27192.00
842.94	26900.00
843.38	26458.00
843.81	26060.00
844.25	26060.00
844.69	25856.00
845.13	25726.00
845.57	25780.00
846.01	25972.00
846.45	26136.00
846.88	26388.00
847.32	26688.00
847.76	26836.00
848.20	26950.00
848.64	26763.00
849.08	26364.00
849.51	26218.00
849.95	25548.00
850.39	25686.00
850.83	26032.00
851.27	25912.00
851.70	25558.00
852.14	25510.00
852.58	24794.00
853.02	24024.00
853.46	23418.00
853.89	23344.00
854.33	23400.00
854.77	24480.00
855.21	25984.00
855.65	26688.00
856.08	26878.00
856.52	26986.00
856.96	26708.00
857.40	26196.00
857.83	25821.00
858.27	25440.00
858.71	24950.00
859.15	25172.00
859.58	25262.00
860.02	25377.00
860.46	25694.00
860.89	26120.00
861.33	26420.00
861.77	26668.00
862.21	26824.00
862.64	26914.00
863.08	26886.00
863.52	26488.00
863.95	26270.00
864.39	25636.00
864.83	24872.00
865.27	23680.00
865.70	23628.00
866.14	23048.00
866.58	23189.00
867.01	24188.00
867.45	25166.00
867.89	25560.00
868.32	26148.00
868.76	26332.00
869.20	26396.00
869.63	26708.00
870.07	26250.00
870.51	25516.00
870.94	25178.00
871.38	24630.00
871.82	24162.00
872.25	24008.00
872.69	23963.00
873.13	24206.00
873.56	24352.00
874.00	24764.00
874.43	25066.00
874.87	25392.00
875.31	25586.00
875.74	25752.00
876.18	25886.00
876.61	25908.00
877.05	25623.00
877.49	25316.00
877.92	25130.00
878.36	24760.00
878.79	24210.00
879.23	23756.00
879.67	23422.00
880.10	23480.00
880.54	23340.00
880.97	23636.00
881.41	24448.00
881.84	24970.00
882.28	25356.00
882.72	25648.00
883.15	26086.00
883.59	26260.00
884.02	25926.00
884.46	25885.00
884.89	25304.00
885.33	24928.00
885.76	24272.00
886.20	23682.00
886.63	23602.00
887.07	23302.00
887.50	23242.00
887.94	23359.00
888.37	23526.00
888.81	24126.00
889.24	24030.00
889.68	24374.00
890.11	24784.00
890.55	24888.00
890.98	25162.00
891.42	25182.00
891.85	24999.00
892.29	24642.00
892.72	24106.00
893.16	23585.00
893.59	22836.00
894.03	22296.00
894.46	21746.00
894.90	20894.00
895.33	20024.00
895.77	20126.00
896.20	19842.00
896.63	20027.00
897.07	19931.00
897.50	19700.00
897.94	20158.00
898.37	20820.00
898.81	19420.00
899.24	19666.00
899.68	20544.00
900.11	20119.00
900.54	19662.00
900.98	19466.00
901.41	19206.00
901.85	19651.00
902.28	19572.00
902.71	19764.00
903.15	20286.00
903.58	20996.00
904.02	20968.00
904.45	20876.00
904.88	20674.00
905.32	20594.00
905.75	20492.00
906.18	19992.00
906.62	19979.00
907.05	19564.00
907.48	19688.00
907.92	19458.00
908.35	19746.00
908.79	19200.00
909.22	19014.00
909.65	18894.00
910.09	18863.00
910.52	18464.00
910.95	18666.00
911.38	18571.00
911.82	17953.00
912.25	18488.00
912.68	18758.00
913.12	18622.00
913.55	18664.00
913.98	19308.00
914.42	20216.00
914.85	20156.00
915.28	19428.00
915.72	19282.00
916.15	19014.00
916.58	19104.00
917.01	18434.00
917.45	18016.00
917.88	18647.00
918.31	18768.00
918.74	19534.00
919.18	19556.00
919.61	19542.00
920.04	19846.00
920.47	20176.00
920.91	20342.00
921.34	20124.00
921.77	20478.00
922.20	20632.00
922.64	20580.00
923.07	20472.00
923.50	20230.00
923.93	19959.00
924.37	19746.00
924.80	19526.00
925.23	19168.00
925.66	18588.00
926.09	17682.00
926.53	17313.00
926.96	16674.00
927.39	16102.00
927.82	15104.00
928.25	14588.00
928.69	14501.00
929.12	14260.00
929.55	13552.00
929.98	13114.00
930.41	12422.00
930.84	11868.00
931.28	11042.00
931.71	10384.00
932.14	9453.00
932.57	9252.00
933.00	8808.00
933.43	8570.00
933.86	8048.00
934.30	7878.00
934.73	8668.00
935.16	8184.00
935.59	7894.00
936.02	8202.00
936.45	7921.00
936.88	8162.00
937.31	8784.00
937.75	9076.00
938.18	9518.00
938.61	9941.00
939.04	10200.00
939.47	10014.00
939.90	9455.00
940.33	9322.00
940.76	8683.00
941.19	8412.00
941.62	8214.00
942.05	8054.00
942.48	7329.00
942.91	7439.00
943.35	7724.00
943.78	7350.00
944.21	7377.00
944.64	7873.00
945.07	7976.00
945.50	7840.00
945.93	8060.00
946.36	8308.00
946.79	8584.00
947.22	8886.00
947.65	8653.00
948.08	8432.00
948.51	8954.00
948.94	9044.00
949.37	8824.00
949.80	8464.00
950.23	8610.00
950.66	8938.00
951.09	8776.00
951.52	8380.00
951.95	8593.00
952.38	8842.00
952.81	9328.00
953.24	9670.00
953.67	9667.00
954.10	9788.00
954.53	10090.00
954.96	9928.00
955.39	10312.00
955.82	10722.00
956.25	10386.00
956.68	10700.00
957.11	10838.00
957.53	10462.00
957.96	10468.00
958.39	10264.00
958.82	9892.00
959.25	10262.00
959.68	10556.00
960.11	10690.00
960.54	10910.00
960.97	11370.00
961.40	11681.00
961.83	11390.00
962.26	11868.00
962.68	12592.00
963.11	12646.00
963.54	12782.00
963.97	12882.00
964.40	12890.00
964.83	13316.00
965.26	13318.00
965.69	13146.00
966.11	13096.00
966.54	13174.00
966.97	13749.00
967.40	13694.00
967.83	13866.00
968.26	13912.00
968.69	13932.00
969.11	13976.00
969.54	13850.00
969.97	13968.00
970.40	14180.00
970.83	14068.00
971.26	14363.00
971.68	14212.00
972.11	14362.00
972.54	14692.00
972.97	14516.00
973.40	14290.00
973.82	14440.00
974.25	14338.00
974.68	14154.00
975.11	13908.00
975.54	13696.00
975.96	13614.00
976.39	13652.00
976.82	13612.00
977.25	13456.00
977.67	13390.00
978.10	13464.00
978.53	13666.00
978.96	13964.00
979.38	14273.00
979.81	14390.00
980.24	14932.00
980.67	14994.00
981.09	15226.00
981.52	15374.00
981.95	15448.00
982.38	15504.00
982.80	15549.00
983.23	15860.00
983.66	15900.00
984.08	15712.00
984.51	15382.00
984.94	15432.00
985.37	15295.00
985.79	14884.00
986.22	14718.00
986.65	14544.00
987.07	14483.00
987.50	14390.00
987.93	14294.00
988.35	14356.00
988.78	14377.00
989.21	14534.00
989.63	14799.00
990.06	15144.00
990.49	15174.00
990.91	15558.00
991.34	15656.00
991.77	15728.00
992.19	15640.00
992.62	15478.00
993.05	15521.00
993.47	15404.00
993.90	15362.00
994.32	15088.00
994.75	14852.00
995.18	14529.00
995.60	14464.00
996.03	14105.00
996.45	14202.00
996.88	14015.00
997.31	13958.00
997.73	13886.00
998.16	13864.00
998.58	13980.00
999.01	14107.00
999.44	14276.00
999.86	14420.00
1000.29	14513.00
1000.71	14716.00
1001.14	14778.00
1001.56	14812.00
1001.99	14434.00
1002.41	14320.00
1002.84	14192.00
1003.27	13846.00
1003.69	13724.00
1004.12	13476.00
1004.54	13252.00
1004.97	13025.00
1005.39	12948.00
1005.82	12786.00
1006.24	12704.00
1006.67	12810.00
1007.09	12738.00
1007.52	12705.00
1007.94	12706.00
1008.37	12822.00
1008.79	12834.00
1009.22	12798.00
1009.64	12780.00
1010.07	12860.00
1010.49	13005.00
1010.92	12922.00
1011.34	12956.00
1011.77	12950.00
1012.19	12894.00
1012.62	12930.00
1013.04	12572.00
1013.46	12482.00
1013.89	12237.00
1014.31	12076.00
1014.74	11822.00
1015.16	11753.00
1015.59	11540.00
1016.01	11760.00
1016.44	11590.00
1016.86	12932.00
1017.28	11744.00
1017.71	11798.00
1018.13	12099.00
1018.56	12025.00
1018.98	12187.00
1019.40	12156.00
1019.83	12254.00
1020.25	12366.00
1020.68	12356.00
1021.10	12735.00
1021.52	12526.00
1021.95	12914.00
1022.37	12756.00
1022.79	12612.00
1023.22	12518.00
1023.64	12488.00
1024.07	12192.00
1024.49	12214.00
1024.91	11942.00
1025.34	11878.00
1025.76	11945.00
1026.18	11700.00
1026.61	11652.00
1027.03	11608.00
1027.45	11628.00
1027.88	11696.00
1028.30	11741.00
1028.72	11692.00
1029.15	11750.00
1029.57	11924.00
1029.99	11984.00
1030.41	11906.00
1030.84	12022.00
1031.26	11806.00
1031.68	11737.00
1032.11	11644.00
1032.53	11598.00
1032.95	11397.00
1033.37	11418.00
1033.80	11266.00
1034.22	10906.00
1034.64	11040.00
1035.06	10712.00
1035.49	10554.00
1035.91	10452.00
1036.33	10453.00
1036.75	10382.00
1037.18	10318.00
1037.60	10210.00
1038.02	10292.00
1038.44	10201.00
1038.87	10285.00
1039.29	10150.00
1039.71	10380.00
1040.13	10276.00
1040.55	10470.00
1040.98	10350.00
1041.40	10290.00
1041.82	10152.00
1042.24	10177.00
1042.66	9965.00
1043.09	9911.00
1043.51	9742.00
1043.93	9675.00
1044.35	9470.00
1044.77	9422.00
1045.20	9290.00
1045.62	9098.00
1046.04	9044.00
1046.46	9008.00
1046.88	8872.00
1047.30	8934.00
1047.72	8845.00
1048.15	8919.00
1048.57	8719.00
1048.99	8728.00
1049.41	8635.00
1049.83	8724.00
1050.25	8722.00
1050.67	8601.00
1051.09	8620.00
1051.52	8643.00
1051.94	8440.00
1052.36	8630.00
1052.78	8464.00
1053.20	8492.00
1053.62	8371.00
1054.04	8340.00
1054.46	8339.00
1054.88	8290.00
1055.30	8144.00
1055.72	8154.00
1056.14	8005.00
1056.57	8050.00
1056.99	7788.00
1057.41	7813.00
1057.83	7690.00
1058.25	7608.00
1058.67	7528.00
1059.09	7398.00
1059.51	7392.00
1059.93	7270.00
1060.35	7328.00
1060.77	7369.00
1061.19	7256.00
1061.61	7180.00
1062.03	7246.00
1062.45	7214.00
1062.87	7202.00
1063.29	7101.00
1063.71	7055.00
1064.13	6950.00
1064.55	6978.00
1064.97	7113.00
1065.39	6956.00
1065.81	6893.00
1066.23	6814.00
1066.65	6832.00
1067.07	6846.00
1067.49	6732.00
1067.91	6626.00
1068.33	6520.00
1068.75	6616.00
1069.17	6575.00
1069.59	6492.00
1070.00	6400.00
1070.42	6486.00
1070.84	6346.00
1071.26	6248.00
1071.68	6222.00
1072.10	6308.00
1072.52	6284.00
1072.94	6237.00
1073.36	6214.00
1073.78	6105.00
1074.20	6116.00
1074.62	6095.00
1075.03	6100.00
1075.45	6040.00
1075.87	6154.00
1076.29	6084.00
1076.71	6134.00
1077.13	6086.00
1077.55	5998.00
1077.97	5982.00
1078.38	5912.00
1078.80	5878.00
1079.22	5842.00
1079.64	5798.00
1080.06	5722.00
1080.48	5782.00
1080.89	5608.00
1081.31	5626.00
1081.73	5600.00
1082.15	5575.00
1082.57	5612.00
1082.99	5525.00
1083.40	5496.00
1083.82	5536.00
1084.24	5446.00
1084.66	5405.00
1085.08	5454.00
1085.49	5320.00
1085.91	5466.00
1086.33	6828.00
1086.75	5316.00
1087.17	5291.00
1087.58	5396.00
1088.00	5317.00
1088.42	5376.00
1088.84	5253.00
1089.25	5174.00
1089.67	5222.00
1090.09	5160.00
1090.51	5048.00
1090.92	5106.00
1091.34	5025.00
1091.76	4966.00
1092.18	4962.00
1092.59	4944.00
1093.01	4900.00
1093.43	4890.00
1093.84	4876.00
1094.26	4858.00
1094.68	4810.00
1095.10	4782.00
1095.51	4738.00
1095.93	4730.00
1096.35	4774.00
1096.76	4730.00
1097.18	4768.00
1097.60	4646.00
1098.01	4682.00
1098.43	4607.00
1098.85	4624.00
1099.26	4601.00
1099.68	4596.00
1100.10	4458.00
1100.51	4460.00
1100.93	4482.00
1101.35	4454.00
1101.76	4426.00
1102.18	4970.00
1102.60	4416.00
1103.01	4281.00
1103.43	4394.00
1103.84	4362.00
1104.26	4282.00
1104.68	4271.00
1105.09	4202.00
1105.51	4212.00
1105.92	4291.00
1106.34	4182.00
1106.76	4248.00
1107.17	4184.00
1107.59	4132.00
1108.00	4052.00
1108.42	4048.00
1108.83	4038.00
1109.25	4038.00
1109.67	3951.00
1110.08	4019.00
1110.50	3938.00
1110.91	3954.00
1111.33	3926.00
1111.74	3890.00
1112.16	3936.00
1112.57	3876.00
1112.99	3839.00
1113.41	3798.00
1113.82	3772.00
1114.24	3794.00
1114.65	3692.00
1115.07	3587.00
1115.48	3438.00
1115.90	2184.00
1116.31	2220.00
1116.73	2214.00
1117.14	2221.00
>>>>>End Processed Spectral Data<<<<<
