SpectraSuite Data File
++++++++++++++++++++++++++++++++++++
Date: Tue May 29 13:19:53 EEST 2018
User: CanSEE
Dark Spectrum Present: No
Reference Spectrum Present: No
Number of Sampled Component Spectra: 1
Spectrometers: MAYP11278
Integration Time (usec): 220000 (MAYP11278)
Spectra Averaged: 1 (MAYP11278)
Boxcar Smoothing: 0 (MAYP11278)
Correct for Electrical Dark: No (MAYP11278)
Strobe/Lamp Enabled: No (MAYP11278)
Correct for Detector Non-linearity: No (MAYP11278)
Correct for Stray Light: No (MAYP11278)
Number of Pixels in Processed Spectrum: 2068
>>>>>Begin Processed Spectral Data<<<<<
187.82	2344.00
188.30	2244.00
188.78	2217.00
189.26	2218.00
189.73	3422.00
190.21	3616.00
190.69	3686.00
191.17	3664.00
191.64	3725.00
192.12	3680.00
192.60	3626.00
193.07	3642.00
193.55	3640.00
194.03	3654.00
194.51	3660.00
194.98	3650.00
195.46	3748.00
195.94	3656.00
196.42	3600.00
196.89	3788.00
197.37	3698.00
197.85	3602.00
198.32	3626.00
198.80	3612.00
199.28	3674.00
199.76	3700.00
200.23	3644.00
200.71	3672.00
201.19	3752.00
201.66	3688.00
202.14	3712.00
202.62	3585.00
203.09	3672.00
203.57	3630.00
204.05	3703.00
204.53	3765.00
205.00	3642.00
205.48	3666.00
205.96	3749.00
206.43	3666.00
206.91	3682.00
207.39	3820.00
207.86	3682.00
208.34	3702.00
208.82	3624.00
209.29	3707.00
209.77	3698.00
210.25	3662.00
210.72	3716.00
211.20	3706.00
211.68	3692.00
212.15	3654.00
212.63	3795.00
213.11	3722.00
213.58	3656.00
214.06	3741.00
214.53	3722.00
215.01	3780.00
215.49	3714.00
215.96	3716.00
216.44	3723.00
216.92	3694.00
217.39	3715.00
217.87	3715.00
218.35	3756.00
218.82	3638.00
219.30	3636.00
219.77	3647.00
220.25	3660.00
220.73	3816.00
221.20	3688.00
221.68	3761.00
222.15	3646.00
222.63	3718.00
223.11	3610.00
223.58	3784.00
224.06	3727.00
224.53	3715.00
225.01	3710.00
225.49	3724.00
225.96	3672.00
226.44	3678.00
226.91	3775.00
227.39	3723.00
227.87	3708.00
228.34	3702.00
228.82	3751.00
229.29	3680.00
229.77	3681.00
230.24	3676.00
230.72	3704.00
231.20	3775.00
231.67	3702.00
232.15	3670.00
232.62	3666.00
233.10	3696.00
233.57	3706.00
234.05	3855.00
234.53	3746.00
235.00	3670.00
235.48	3670.00
235.95	3708.00
236.43	3713.00
236.90	3800.00
237.38	3649.00
237.85	3713.00
238.33	3717.00
238.80	3750.00
239.28	3688.00
239.75	3634.00
240.23	3723.00
240.71	3789.00
241.18	3692.00
241.66	3680.00
242.13	3753.00
242.61	3762.00
243.08	3635.00
243.56	3719.00
244.03	3764.00
244.51	3755.00
244.98	3682.00
245.46	3779.00
245.93	5658.00
246.41	3596.00
246.88	3710.00
247.36	3692.00
247.83	3725.00
248.31	3724.00
248.78	3652.00
249.26	3728.00
249.73	3745.00
250.21	3723.00
250.68	3826.00
251.16	3726.00
251.63	3834.00
252.10	3785.00
252.58	3700.00
253.05	3764.00
253.53	3730.00
254.00	3718.00
254.48	3710.00
254.95	3787.00
255.43	3738.00
255.90	3704.00
256.38	3763.00
256.85	3754.00
257.33	3790.00
257.80	3883.00
258.27	3750.00
258.75	3712.00
259.22	3698.00
259.70	3751.00
260.17	3790.00
260.65	3723.00
261.12	3672.00
261.59	3774.00
262.07	3678.00
262.54	3741.00
263.02	3724.00
263.49	3648.00
263.97	3804.00
264.44	3776.00
264.91	3680.00
265.39	3714.00
265.86	3750.00
266.34	3776.00
266.81	3743.00
267.28	3764.00
267.76	3713.00
268.23	3722.00
268.71	3618.00
269.18	3725.00
269.65	3670.00
270.13	3724.00
270.60	3764.00
271.08	3730.00
271.55	3720.00
272.02	3706.00
272.50	3725.00
272.97	3676.00
273.44	3732.00
273.92	3848.00
274.39	3740.00
274.87	3726.00
275.34	3658.00
275.81	3710.00
276.29	3684.00
276.76	3749.00
277.23	3618.00
277.71	3652.00
278.18	3626.00
278.65	3833.00
279.13	3638.00
279.60	3713.00
280.07	3996.00
280.55	3950.00
281.02	3960.00
281.50	3784.00
281.97	3853.00
282.44	3764.00
282.91	3771.00
283.39	3799.00
283.86	3690.00
284.33	3706.00
284.81	3740.00
285.28	3744.00
285.75	3754.00
286.23	3766.00
286.70	3714.00
287.17	3796.00
287.65	3782.00
288.12	3727.00
288.59	3772.00
289.07	3666.00
289.54	3792.00
290.01	3724.00
290.48	3723.00
290.96	3724.00
291.43	3787.00
291.90	3892.00
292.38	3714.00
292.85	3776.00
293.32	3700.00
293.79	3815.00
294.27	3776.00
294.74	3686.00
295.21	3748.00
295.69	3785.00
296.16	3797.00
296.63	3805.00
297.10	3749.00
297.58	3766.00
298.05	3779.00
298.52	3716.00
298.99	3858.00
299.47	3698.00
299.94	3768.00
300.41	3704.00
300.88	3775.00
301.36	3747.00
301.83	3801.00
302.30	3676.00
302.77	3769.00
303.25	3782.00
303.72	3696.00
304.19	3736.00
304.66	3719.00
305.13	3787.00
305.61	3779.00
306.08	3745.00
306.55	3798.00
307.02	3738.00
307.49	3741.00
307.97	3765.00
308.44	3730.00
308.91	3768.00
309.38	3773.00
309.86	3768.00
310.33	3762.00
310.80	3794.00
311.27	3774.00
311.74	3808.00
312.21	3733.00
312.69	3857.00
313.16	3714.00
313.63	3748.00
314.10	3763.00
314.57	3755.00
315.05	3708.00
315.52	3815.00
315.99	3764.00
316.46	3713.00
316.93	3807.00
317.40	3772.00
317.88	3894.00
318.35	3753.00
318.82	3739.00
319.29	3727.00
319.76	3814.00
320.23	3830.00
320.70	3801.00
321.18	3766.00
321.65	3670.00
322.12	3706.00
322.59	3872.00
323.06	3777.00
323.53	3886.00
324.00	3694.00
324.48	3788.00
324.95	3781.00
325.42	3726.00
325.89	3796.00
326.36	3761.00
326.83	3855.00
327.30	3750.00
327.77	3771.00
328.24	3784.00
328.72	3738.00
329.19	3761.00
329.66	3766.00
330.13	3759.00
330.60	3822.00
331.07	3794.00
331.54	3896.00
332.01	3745.00
332.48	3890.00
332.95	3809.00
333.43	3764.00
333.90	3824.00
334.37	3757.00
334.84	3836.00
335.31	3926.00
335.78	3710.00
336.25	3802.00
336.72	3723.00
337.19	3767.00
337.66	3732.00
338.13	3755.00
338.60	3842.00
339.07	3833.00
339.54	3716.00
340.01	3754.00
340.49	3700.00
340.96	3750.00
341.43	3846.00
341.90	3732.00
342.37	3730.00
342.84	3817.00
343.31	3748.00
343.78	3753.00
344.25	3736.00
344.72	3755.00
345.19	3751.00
345.66	3784.00
346.13	3745.00
346.60	3728.00
347.07	3873.00
347.54	3680.00
348.01	3836.00
348.48	3791.00
348.95	3660.00
349.42	3800.00
349.89	3801.00
350.36	3791.00
350.83	3710.00
351.30	3782.00
351.77	3850.00
352.24	3790.00
352.71	3796.00
353.18	3807.00
353.65	3808.00
354.12	3814.00
354.59	3790.00
355.06	3771.00
355.53	3930.00
356.00	3736.00
356.47	3892.00
356.94	3712.00
357.41	3934.00
357.88	3795.00
358.35	3757.00
358.82	3750.00
359.28	3790.00
359.75	3770.00
360.22	3832.00
360.69	3839.00
361.16	3796.00
361.63	3810.00
362.10	3770.00
362.57	3747.00
363.04	3806.00
363.51	3934.00
363.98	3832.00
364.45	3750.00
364.92	3842.00
365.39	3761.00
365.86	3710.00
366.32	3826.00
366.79	3787.00
367.26	4866.00
367.73	4150.00
368.20	3790.00
368.67	3832.00
369.14	3727.00
369.61	3841.00
370.08	3824.00
370.55	3781.00
371.02	4530.00
371.48	3804.00
371.95	3755.00
372.42	3753.00
372.89	3779.00
373.36	3796.00
373.83	3731.00
374.30	3738.00
374.77	3810.00
375.23	3719.00
375.70	3856.00
376.17	3736.00
376.64	3748.00
377.11	3766.00
377.58	3763.00
378.05	3828.00
378.51	3770.00
378.98	3763.00
379.45	3800.00
379.92	3778.00
380.39	3918.00
380.86	3790.00
381.33	3847.00
381.79	3819.00
382.26	3698.00
382.73	3776.00
383.20	3744.00
383.67	3816.00
384.14	3778.00
384.60	4028.00
385.07	3784.00
385.54	3771.00
386.01	3778.00
386.48	3875.00
386.94	3780.00
387.41	3706.00
387.88	3843.00
388.35	3789.00
388.82	3824.00
389.28	3768.00
389.75	3865.00
390.22	3826.00
390.69	3779.00
391.16	3832.00
391.62	3745.00
392.09	3773.00
392.56	3771.00
393.03	3795.00
393.50	3937.00
393.96	3760.00
394.43	3854.00
394.90	3772.00
395.37	3854.00
395.83	4013.00
396.30	3690.00
396.77	3814.00
397.24	3847.00
397.70	3738.00
398.17	3784.00
398.64	3768.00
399.11	3756.00
399.57	3826.00
400.04	3757.00
400.51	3791.00
400.98	3758.00
401.44	3827.00
401.91	3808.00
402.38	3846.00
402.84	3770.00
403.31	3891.00
403.78	3792.00
404.25	3871.00
404.71	3910.00
405.18	3846.00
405.65	3748.00
406.12	3852.00
406.58	3799.00
407.05	3912.00
407.52	3850.00
407.98	4136.00
408.45	3782.00
408.92	3774.00
409.38	3926.00
409.85	3779.00
410.32	3894.00
410.78	3801.00
411.25	3918.00
411.72	3818.00
412.18	3736.00
412.65	3856.00
413.12	3780.00
413.59	3813.00
414.05	3810.00
414.52	3948.00
414.98	3856.00
415.45	3896.00
415.92	3842.00
416.38	3837.00
416.85	3934.00
417.32	3826.00
417.78	3779.00
418.25	3852.00
418.72	3860.00
419.18	3862.00
419.65	3805.00
420.12	3841.00
420.58	3812.00
421.05	3825.00
421.51	3836.00
421.98	3856.00
422.45	3819.00
422.91	3876.00
423.38	3864.00
423.85	3906.00
424.31	3820.00
424.78	3874.00
425.24	3830.00
425.71	3892.00
426.18	3818.00
426.64	3904.00
427.11	3884.00
427.57	3836.00
428.04	3817.00
428.51	3888.00
428.97	3858.00
429.44	3823.00
429.90	3804.00
430.37	3948.00
430.83	3789.00
431.30	3832.00
431.77	3905.00
432.23	3891.00
432.70	3854.00
433.16	3812.00
433.63	3796.00
434.09	3762.00
434.56	3889.00
435.03	3792.00
435.49	3888.00
435.96	3865.00
436.42	3777.00
436.89	3892.00
437.35	3839.00
437.82	3904.00
438.28	3784.00
438.75	3816.00
439.21	4048.00
439.68	3876.00
440.14	3896.00
440.61	3908.00
441.07	3778.00
441.54	3824.00
442.00	3992.00
442.47	3813.00
442.94	3836.00
443.40	3877.00
443.87	3796.00
444.33	3962.00
444.80	3884.00
445.26	3870.00
445.73	3823.00
446.19	3856.00
446.65	3871.00
447.12	3894.00
447.58	3831.00
448.05	3860.00
448.51	3918.00
448.98	3904.00
449.44	3856.00
449.91	3791.00
450.37	3827.00
450.84	3822.00
451.30	3871.00
451.77	3910.00
452.23	3809.00
452.70	3970.00
453.16	3881.00
453.62	3854.00
454.09	3841.00
454.55	3822.00
455.02	3867.00
455.48	3848.00
455.95	3912.00
456.41	3859.00
456.88	3896.00
457.34	3838.00
457.80	3892.00
458.27	3770.00
458.73	3855.00
459.20	3900.00
459.66	3905.00
460.13	3816.00
460.59	3782.00
461.05	3894.00
461.52	3858.00
461.98	3791.00
462.45	3759.00
462.91	3858.00
463.37	3818.00
463.84	3816.00
464.30	3782.00
464.76	3730.00
465.23	3779.00
465.69	3860.00
466.16	3777.00
466.62	3805.00
467.08	3789.00
467.55	3764.00
468.01	3762.00
468.48	3753.00
468.94	3748.00
469.40	3684.00
469.87	3763.00
470.33	3765.00
470.79	3760.00
471.26	3700.00
471.72	3708.00
472.18	3692.00
472.65	3694.00
473.11	3813.00
473.57	3700.00
474.04	3686.00
474.50	3714.00
474.96	3666.00
475.43	3779.00
475.89	3710.00
476.35	3766.00
476.82	3676.00
477.28	3732.00
477.74	3809.00
478.21	3710.00
478.67	3803.00
479.13	3708.00
479.59	3744.00
480.06	3694.00
480.52	3716.00
480.98	3708.00
481.45	3694.00
481.91	3713.00
482.37	3664.00
482.84	3694.00
483.30	3656.00
483.76	3706.00
484.22	3759.00
484.69	3704.00
485.15	3680.00
485.61	3612.00
486.07	3688.00
486.54	3580.00
487.00	3657.00
487.46	3613.00
487.92	3664.00
488.39	3680.00
488.85	3696.00
489.31	3688.00
489.77	3757.00
490.24	3654.00
490.70	3702.00
491.16	3656.00
491.62	3652.00
492.09	3616.00
492.55	3742.00
493.01	3718.00
493.47	3678.00
493.94	3741.00
494.40	3696.00
494.86	3672.00
495.32	3664.00
495.78	3720.00
496.25	3698.00
496.71	3745.00
497.17	3860.00
497.63	3838.00
498.09	3696.00
498.56	3781.00
499.02	3777.00
499.48	3852.00
499.94	3753.00
500.40	3702.00
500.87	3811.00
501.33	3776.00
501.79	3793.00
502.25	3786.00
502.71	4150.00
503.17	3778.00
503.64	3826.00
504.10	3807.00
504.56	3832.00
505.02	3851.00
505.48	3860.00
505.94	3900.00
506.40	3918.00
506.87	3904.00
507.33	3876.00
507.79	3918.00
508.25	3892.00
508.71	3894.00
509.17	3878.00
509.63	3922.00
510.10	3973.00
510.56	3984.00
511.02	4134.00
511.48	4114.00
511.94	4028.00
512.40	4008.00
512.86	4043.00
513.32	4118.00
513.78	3993.00
514.25	4194.00
514.71	4899.00
515.17	4042.00
515.63	4230.00
516.09	4220.00
516.55	4216.00
517.01	4364.00
517.47	4250.00
517.93	4294.00
518.39	4488.00
518.85	4332.00
519.32	4328.00
519.78	4388.00
520.24	4404.00
520.70	4511.00
521.16	4596.00
521.62	4598.00
522.08	4592.00
522.54	4581.00
523.00	4671.00
523.46	4700.00
523.92	4708.00
524.38	4868.00
524.84	4784.00
525.30	4854.00
525.76	4811.00
526.22	4775.00
526.68	4732.00
527.14	4816.00
527.60	4825.00
528.06	4976.00
528.52	4936.00
528.98	4962.00
529.44	4929.00
529.90	5008.00
530.36	5047.00
530.82	5055.00
531.28	5202.00
531.74	5074.00
532.20	4972.00
532.66	5074.00
533.12	5101.00
533.58	5078.00
534.04	5084.00
534.50	5112.00
534.96	5172.00
535.42	5210.00
535.88	5188.00
536.34	5222.00
536.80	5112.00
537.26	5238.00
537.72	5220.00
538.18	5236.00
538.64	5258.00
539.10	5234.00
539.56	5452.00
540.02	5080.00
540.48	5240.00
540.94	5186.00
541.40	5134.00
541.86	5291.00
542.32	5172.00
542.78	5222.00
543.24	5356.00
543.69	5176.00
544.15	5426.00
544.61	5238.00
545.07	5238.00
545.53	5288.00
545.99	5272.00
546.45	5318.00
546.91	5224.00
547.37	5220.00
547.83	5312.00
548.29	5275.00
548.74	5280.00
549.20	5242.00
549.66	5436.00
550.12	5261.00
550.58	5166.00
551.04	5272.00
551.50	5373.00
551.96	5424.00
552.42	5262.00
552.87	5200.00
553.33	5320.00
553.79	5265.00
554.25	5226.00
554.71	5284.00
555.17	5320.00
555.63	5384.00
556.08	5250.00
556.54	5318.00
557.00	5156.00
557.46	5260.00
557.92	5277.00
558.38	5144.00
558.83	5096.00
559.29	5132.00
559.75	5101.00
560.21	5104.00
560.67	5166.00
561.13	5194.00
561.58	5092.00
562.04	5082.00
562.50	5044.00
562.96	5086.00
563.42	5108.00
563.87	5012.00
564.33	5020.00
564.79	5034.00
565.25	5020.00
565.71	4956.00
566.16	4993.00
566.62	4952.00
567.08	4934.00
567.54	4916.00
568.00	4950.00
568.45	4808.00
568.91	4810.00
569.37	4884.00
569.83	4804.00
570.28	4735.00
570.74	4831.00
571.20	4760.00
571.66	4748.00
572.11	4744.00
572.57	4718.00
573.03	4680.00
573.49	4652.00
573.94	4724.00
574.40	4730.00
574.86	4655.00
575.32	4548.00
575.77	4600.00
576.23	4572.00
576.69	4658.00
577.15	4543.00
577.60	4525.00
578.06	4494.00
578.52	4597.00
578.97	4530.00
579.43	4492.00
579.89	4548.00
580.34	4497.00
580.80	4531.00
581.26	4508.00
581.72	4516.00
582.17	4494.00
582.63	4428.00
583.09	4495.00
583.54	4483.00
584.00	4424.00
584.46	4484.00
584.91	4364.00
585.37	4492.00
585.83	4376.00
586.28	4427.00
586.74	4434.00
587.20	4386.00
587.65	4464.00
588.11	4298.00
588.57	4330.00
589.02	4275.00
589.48	4200.00
589.94	4312.00
590.39	4326.00
590.85	4298.00
591.30	4310.00
591.76	4416.00
592.22	4292.00
592.67	4334.00
593.13	4320.00
593.59	4322.00
594.04	4282.00
594.50	4324.00
594.95	4366.00
595.41	4230.00
595.87	4255.00
596.32	4372.00
596.78	4324.00
597.23	4342.00
597.69	4288.00
598.15	4216.00
598.60	4263.00
599.06	4348.00
599.51	4268.00
599.97	4362.00
600.43	4296.00
600.88	4228.00
601.34	4299.00
601.79	4198.00
602.25	4428.00
602.70	4237.00
603.16	4241.00
603.61	4160.00
604.07	4202.00
604.53	4255.00
604.98	4242.00
605.44	4222.00
605.89	4246.00
606.35	4168.00
606.80	4250.00
607.26	4250.00
607.71	4194.00
608.17	4242.00
608.62	4235.00
609.08	4283.00
609.53	4255.00
609.99	4150.00
610.44	4142.00
610.90	4148.00
611.35	4068.00
611.81	4210.00
612.26	4122.00
612.72	4116.00
613.17	4253.00
613.63	4080.00
614.08	4048.00
614.54	4047.00
614.99	4006.00
615.45	4018.00
615.90	4064.00
616.36	4012.00
616.81	4004.00
617.27	4078.00
617.72	4100.00
618.18	4042.00
618.63	4014.00
619.09	4022.00
619.54	4068.00
619.99	4042.00
620.45	4092.00
620.90	4083.00
621.36	4032.00
621.81	4056.00
622.27	4059.00
622.72	4057.00
623.18	3988.00
623.63	3968.00
624.08	4021.00
624.54	3914.00
624.99	3985.00
625.45	4018.00
625.90	3976.00
626.35	4020.00
626.81	3998.00
627.26	3972.00
627.72	4076.00
628.17	4018.00
628.62	3938.00
629.08	4008.00
629.53	3991.00
629.99	3924.00
630.44	3986.00
630.89	3985.00
631.35	3984.00
631.80	3978.00
632.26	4054.00
632.71	3944.00
633.16	3971.00
633.62	3967.00
634.07	3936.00
634.52	3926.00
634.98	3940.00
635.43	3982.00
635.88	3895.00
636.34	3964.00
636.79	3938.00
637.24	3926.00
637.70	4010.00
638.15	3981.00
638.60	3892.00
639.06	3896.00
639.51	3868.00
639.96	3856.00
640.42	3904.00
640.87	3964.00
641.32	3844.00
641.78	3838.00
642.23	3856.00
642.68	3787.00
643.14	3766.00
643.59	3904.00
644.04	3819.00
644.49	3786.00
644.95	3784.00
645.40	3744.00
645.85	3800.00
646.31	3794.00
646.76	3823.00
647.21	3807.00
647.66	3829.00
648.12	3798.00
648.57	3718.00
649.02	3846.00
649.47	3778.00
649.93	3994.00
650.38	3745.00
650.83	3696.00
651.28	3726.00
651.74	3792.00
652.19	3690.00
652.64	3773.00
653.09	3720.00
653.55	3656.00
654.00	3767.00
654.45	3750.00
654.90	3696.00
655.35	3656.00
655.81	3718.00
656.26	3668.00
656.71	3706.00
657.16	3747.00
657.62	3720.00
658.07	3727.00
658.52	3752.00
658.97	3672.00
659.42	3920.00
659.88	3658.00
660.33	3779.00
660.78	3674.00
661.23	3674.00
661.68	3674.00
662.13	3658.00
662.59	3610.00
663.04	3725.00
663.49	3660.00
663.94	3644.00
664.39	3674.00
664.84	3602.00
665.30	3642.00
665.75	3570.00
666.20	3666.00
666.65	3598.00
667.10	3809.00
667.55	3690.00
668.00	3592.00
668.46	3648.00
668.91	3606.00
669.36	3724.00
669.81	3543.00
670.26	3600.00
670.71	3692.00
671.16	3658.00
671.61	3731.00
672.06	3732.00
672.52	3644.00
672.97	3581.00
673.42	3686.00
673.87	3771.00
674.32	3634.00
674.77	3648.00
675.22	3551.00
675.67	3588.00
676.12	3668.00
676.57	3626.00
677.02	3568.00
677.47	3610.00
677.93	3763.00
678.38	3602.00
678.83	3578.00
679.28	3656.00
679.73	3622.00
680.18	3628.00
680.63	3656.00
681.08	3548.00
681.53	3524.00
681.98	3613.00
682.43	3630.00
682.88	3682.00
683.33	3652.00
683.78	3690.00
684.23	3722.00
684.68	3664.00
685.13	3696.00
685.58	3684.00
686.03	3624.00
686.48	3634.00
686.93	3664.00
687.38	3642.00
687.83	3662.00
688.28	3684.00
688.73	3824.00
689.18	3771.00
689.63	3688.00
690.08	3778.00
690.53	3787.00
690.98	3740.00
691.43	3862.00
691.88	3780.00
692.33	3924.00
692.78	3930.00
693.23	3986.00
693.68	4015.00
694.13	4008.00
694.58	4092.00
695.03	4346.00
695.48	4158.00
695.93	4210.00
696.38	4408.00
696.83	4309.00
697.28	4351.00
697.72	4432.00
698.17	4446.00
698.62	4591.00
699.07	4626.00
699.52	4586.00
699.97	4684.00
700.42	4804.00
700.87	4806.00
701.32	5053.00
701.77	4842.00
702.22	5009.00
702.67	4956.00
703.11	5116.00
703.56	5188.00
704.01	5240.00
704.46	5220.00
704.91	5502.00
705.36	5519.00
705.81	5486.00
706.26	5496.00
706.70	5538.00
707.15	5710.00
707.60	5760.00
708.05	5818.00
708.50	5933.00
708.95	5917.00
709.40	5974.00
709.84	6080.00
710.29	6096.00
710.74	6187.00
711.19	6240.00
711.64	6370.00
712.09	6297.00
712.53	6345.00
712.98	6595.00
713.43	6529.00
713.88	6616.00
714.33	6694.00
714.78	6641.00
715.22	6664.00
715.67	6704.00
716.12	6674.00
716.57	6570.00
717.02	6399.00
717.46	6346.00
717.91	6394.00
718.36	6387.00
718.81	6303.00
719.26	6386.00
719.70	6498.00
720.15	6547.00
720.60	6742.00
721.05	7120.00
721.49	7250.00
721.94	7400.00
722.39	7422.00
722.84	7282.00
723.28	7138.00
723.73	7188.00
724.18	7095.00
724.63	7305.00
725.07	7354.00
725.52	7368.00
725.97	7460.00
726.42	7553.00
726.86	7713.00
727.31	7648.00
727.76	7770.00
728.21	7872.00
728.65	7907.00
729.10	7884.00
729.55	7996.00
729.99	8140.00
730.44	8100.00
730.89	8222.00
731.33	8369.00
731.78	8630.00
732.23	8750.00
732.68	8840.00
733.12	8983.00
733.57	9153.00
734.02	9194.00
734.46	9371.00
734.91	9351.00
735.36	9352.00
735.80	9568.00
736.25	9464.00
736.70	9661.00
737.14	9746.00
737.59	9838.00
738.04	9717.00
738.48	9675.00
738.93	9790.00
739.37	9829.00
739.82	10098.00
740.27	10096.00
740.71	10074.00
741.16	10106.00
741.61	10196.00
742.05	10238.00
742.50	10302.00
742.94	10278.00
743.39	10312.00
743.84	10330.00
744.28	10375.00
744.73	10414.00
745.18	10574.00
745.62	10518.00
746.07	10706.00
746.51	10576.00
746.96	10662.00
747.40	10542.00
747.85	10566.00
748.30	10650.00
748.74	10690.00
749.19	10578.00
749.63	10796.00
750.08	10602.00
750.52	10646.00
750.97	10602.00
751.42	10622.00
751.86	10512.00
752.31	10600.00
752.75	10694.00
753.20	10654.00
753.64	10518.00
754.09	10598.00
754.53	10702.00
754.98	10642.00
755.42	10660.00
755.87	10755.00
756.31	10642.00
756.76	10548.00
757.20	10742.00
757.65	10504.00
758.09	10306.00
758.54	10064.00
758.98	9134.00
759.43	7744.00
759.87	6372.00
760.32	5636.00
760.76	5560.00
761.21	6288.00
761.65	6910.00
762.10	7096.00
762.54	6834.00
762.99	6602.00
763.43	6844.00
763.88	7065.00
764.32	7359.00
764.77	7730.00
765.21	8260.00
765.66	8490.00
766.10	8890.00
766.54	9198.00
766.99	9564.00
767.43	9720.00
767.88	9890.00
768.32	10082.00
768.77	10165.00
769.21	10344.00
769.66	10310.00
770.10	10409.00
770.54	10526.00
770.99	10386.00
771.43	10560.00
771.88	10584.00
772.32	10476.00
772.76	10334.00
773.21	10400.00
773.65	10378.00
774.10	10292.00
774.54	10300.00
774.98	10412.00
775.43	10526.00
775.87	10634.00
776.31	10596.00
776.76	10598.00
777.20	10518.00
777.65	10526.00
778.09	10457.00
778.53	10401.00
778.98	10474.00
779.42	10570.00
779.86	10453.00
780.31	10332.00
780.75	10414.00
781.19	10438.00
781.64	10451.00
782.08	10526.00
782.52	10438.00
782.97	10371.00
783.41	10424.00
783.85	10336.00
784.30	10143.00
784.74	10169.00
785.18	10074.00
785.63	10114.00
786.07	10276.00
786.51	10228.00
786.95	10280.00
787.40	10090.00
787.84	10120.00
788.28	10100.00
788.73	10064.00
789.17	9934.00
789.61	9844.00
790.05	9788.00
790.50	9748.00
790.94	9692.00
791.38	9822.00
791.82	9674.00
792.27	9814.00
792.71	9830.00
793.15	10048.00
793.59	9871.00
794.04	9755.00
794.48	9786.00
794.92	9712.00
795.36	9556.00
795.81	9630.00
796.25	9578.00
796.69	9612.00
797.13	9648.00
797.57	9657.00
798.02	9836.00
798.46	9818.00
798.90	9659.00
799.34	9638.00
799.79	9700.00
800.23	9518.00
800.67	9466.00
801.11	9381.00
801.55	9456.00
801.99	9358.00
802.44	9398.00
802.88	9452.00
803.32	9522.00
803.76	9460.00
804.20	9466.00
804.64	9528.00
805.09	9683.00
805.53	9604.00
805.97	9625.00
806.41	9457.00
806.85	9488.00
807.29	9248.00
807.74	9200.00
808.18	9182.00
808.62	9130.00
809.06	9266.00
809.50	9243.00
809.94	9208.00
810.38	9212.00
810.82	9237.00
811.27	9375.00
811.71	9120.00
812.15	8855.00
812.59	8774.00
813.03	8639.00
813.47	8484.00
813.91	8284.00
814.35	8226.00
814.79	8176.00
815.23	8116.00
815.67	7944.00
816.12	8016.00
816.56	8004.00
817.00	8150.00
817.44	8184.00
817.88	8091.00
818.32	8067.00
818.76	8131.00
819.20	8141.00
819.64	8124.00
820.08	8178.00
820.52	8324.00
820.96	8360.00
821.40	8250.00
821.84	8212.00
822.28	7813.00
822.72	7900.00
823.16	7792.00
823.60	7954.00
824.04	8558.00
824.48	8460.00
824.92	8522.00
825.36	8632.00
825.80	8408.00
826.24	8292.00
826.68	8200.00
827.12	8296.00
827.56	8253.00
828.00	8218.00
828.44	8192.00
828.88	8360.00
829.32	8426.00
829.76	8302.00
830.20	8630.00
830.64	8388.00
831.08	8540.00
831.52	8398.00
831.96	8192.00
832.40	8064.00
832.84	8193.00
833.28	8173.00
833.72	8500.00
834.16	8446.00
834.60	8566.00
835.04	8644.00
835.48	8720.00
835.91	8696.00
836.35	8673.00
836.79	8656.00
837.23	8607.00
837.67	8436.00
838.11	8488.00
838.55	8486.00
838.99	8417.00
839.43	8655.00
839.87	8636.00
840.30	8659.00
840.74	8816.00
841.18	8760.00
841.62	8822.00
842.06	8836.00
842.50	8810.00
842.94	8832.00
843.38	8657.00
843.81	8620.00
844.25	8526.00
844.69	8412.00
845.13	8470.00
845.57	8476.00
846.01	8544.00
846.45	8540.00
846.88	8532.00
847.32	8758.00
847.76	8746.00
848.20	8714.00
848.64	8708.00
849.08	8630.00
849.51	8760.00
849.95	8454.00
850.39	8484.00
850.83	8524.00
851.27	8492.00
851.70	8438.00
852.14	8395.00
852.58	8226.00
853.02	8086.00
853.46	7968.00
853.89	7852.00
854.33	7996.00
854.77	8116.00
855.21	8478.00
855.65	8711.00
856.08	8796.00
856.52	8724.00
856.96	8737.00
857.40	8680.00
857.83	8438.00
858.27	8472.00
858.71	8308.00
859.15	8212.00
859.58	8440.00
860.02	8384.00
860.46	8476.00
860.89	8622.00
861.33	8556.00
861.77	8676.00
862.21	8734.00
862.64	8752.00
863.08	8740.00
863.52	8696.00
863.95	8648.00
864.39	8412.00
864.83	8218.00
865.27	7992.00
865.70	7972.00
866.14	7820.00
866.58	7914.00
867.01	8106.00
867.45	8368.00
867.89	8414.00
868.32	8494.00
868.76	8558.00
869.20	8595.00
869.63	8774.00
870.07	8682.00
870.51	8330.00
870.94	8321.00
871.38	8221.00
871.82	8042.00
872.25	8064.00
872.69	8038.00
873.13	7995.00
873.56	8148.00
874.00	8266.00
874.43	8266.00
874.87	8270.00
875.31	8448.00
875.74	8379.00
876.18	8538.00
876.61	8464.00
877.05	8404.00
877.49	8314.00
877.92	8318.00
878.36	8188.00
878.79	8060.00
879.23	8084.00
879.67	7832.00
880.10	7882.00
880.54	7794.00
880.97	7976.00
881.41	8090.00
881.84	8218.00
882.28	8399.00
882.72	8373.00
883.15	8512.00
883.59	8496.00
884.02	8520.00
884.46	8454.00
884.89	8374.00
885.33	8240.00
885.76	8091.00
886.20	7956.00
886.63	7948.00
887.07	7946.00
887.50	7814.00
887.94	7856.00
888.37	7822.00
888.81	8170.00
889.24	8004.00
889.68	8152.00
890.11	8118.00
890.55	8288.00
890.98	8329.00
891.42	8128.00
891.85	8113.00
892.29	8128.00
892.72	7954.00
893.16	7886.00
893.59	7708.00
894.03	7594.00
894.46	7488.00
894.90	7256.00
895.33	7016.00
895.77	7076.00
896.20	7022.00
896.63	7000.00
897.07	6959.00
897.50	6946.00
897.94	7110.00
898.37	7318.00
898.81	6938.00
899.24	6896.00
899.68	7102.00
900.11	7092.00
900.54	7026.00
900.98	6882.00
901.41	6988.00
901.85	7104.00
902.28	6906.00
902.71	6980.00
903.15	7218.00
903.58	7212.00
904.02	7274.00
904.45	7225.00
904.88	7168.00
905.32	7152.00
905.75	7252.00
906.18	7042.00
906.62	7104.00
907.05	7010.00
907.48	6972.00
907.92	6974.00
908.35	6990.00
908.79	6838.00
909.22	6814.00
909.65	6774.00
910.09	6774.00
910.52	6968.00
910.95	6632.00
911.38	6676.00
911.82	6500.00
912.25	6682.00
912.68	6740.00
913.12	6736.00
913.55	6692.00
913.98	6798.00
914.42	7050.00
914.85	7055.00
915.28	6815.00
915.72	6896.00
916.15	6804.00
916.58	6849.00
917.01	6678.00
917.45	6597.00
917.88	6676.00
918.31	6785.00
918.74	6932.00
919.18	7026.00
919.61	6971.00
920.04	7054.00
920.47	7134.00
920.91	7109.00
921.34	7026.00
921.77	7024.00
922.20	7162.00
922.64	7154.00
923.07	7180.00
923.50	7086.00
923.93	6992.00
924.37	7062.00
924.80	6932.00
925.23	6866.00
925.66	6852.00
926.09	6529.00
926.53	6460.00
926.96	6208.00
927.39	6252.00
927.82	5924.00
928.25	5833.00
928.69	5802.00
929.12	5781.00
929.55	5593.00
929.98	5502.00
930.41	5284.00
930.84	5204.00
931.28	5031.00
931.71	4950.00
932.14	4782.00
932.57	4815.00
933.00	4607.00
933.43	4636.00
933.86	4488.00
934.30	4385.00
934.73	4568.00
935.16	4384.00
935.59	4354.00
936.02	4456.00
936.45	4448.00
936.88	4428.00
937.31	4634.00
937.75	4668.00
938.18	4796.00
938.61	4870.00
939.04	4866.00
939.47	4879.00
939.90	4792.00
940.33	4829.00
940.76	4537.00
941.19	4555.00
941.62	4438.00
942.05	4402.00
942.48	4372.00
942.91	4322.00
943.35	4324.00
943.78	4322.00
944.21	4320.00
944.64	4434.00
945.07	4357.00
945.50	4360.00
945.93	4434.00
946.36	4518.00
946.79	4552.00
947.22	4584.00
947.65	4600.00
948.08	4444.00
948.51	4540.00
948.94	4574.00
949.37	4686.00
949.80	4594.00
950.23	4513.00
950.66	4628.00
951.09	4604.00
951.52	4468.00
951.95	4531.00
952.38	4558.00
952.81	4738.00
953.24	4704.00
953.67	4765.00
954.10	4728.00
954.53	4812.00
954.96	4802.00
955.39	4911.00
955.82	4934.00
956.25	4934.00
956.68	5166.00
957.11	5032.00
957.53	4936.00
957.96	4946.00
958.39	4871.00
958.82	4732.00
959.25	4874.00
959.68	4878.00
960.11	4978.00
960.54	5025.00
960.97	5086.00
961.40	5264.00
961.83	5142.00
962.26	5172.00
962.68	5406.00
963.11	5356.00
963.54	5428.00
963.97	5406.00
964.40	5432.00
964.83	5521.00
965.26	5498.00
965.69	5511.00
966.11	5448.00
966.54	5456.00
966.97	5498.00
967.40	5672.00
967.83	5830.00
968.26	5635.00
968.69	5609.00
969.11	5634.00
969.54	5538.00
969.97	5577.00
970.40	5754.00
970.83	5664.00
971.26	5736.00
971.68	5624.00
972.11	5702.00
972.54	5763.00
972.97	5734.00
973.40	5730.00
973.82	5680.00
974.25	5686.00
974.68	5648.00
975.11	5624.00
975.54	5562.00
975.96	5578.00
976.39	5500.00
976.82	5598.00
977.25	5500.00
977.67	5542.00
978.10	5568.00
978.53	5605.00
978.96	5728.00
979.38	5756.00
979.81	5704.00
980.24	5842.00
980.67	5912.00
981.09	5922.00
981.52	5874.00
981.95	5929.00
982.38	6022.00
982.80	5958.00
983.23	6081.00
983.66	6133.00
984.08	5970.00
984.51	5935.00
984.94	5930.00
985.37	5972.00
985.79	5880.00
986.22	5756.00
986.65	5787.00
987.07	5748.00
987.50	5801.00
987.93	5728.00
988.35	5714.00
988.78	5782.00
989.21	5732.00
989.63	5898.00
990.06	5922.00
990.49	5966.00
990.91	6028.00
991.34	5986.00
991.77	6051.00
992.19	6031.00
992.62	5948.00
993.05	6006.00
993.47	5978.00
993.90	5960.00
994.32	5882.00
994.75	5790.00
995.18	5724.00
995.60	5732.00
996.03	5602.00
996.45	5697.00
996.88	5708.00
997.31	5585.00
997.73	5648.00
998.16	5618.00
998.58	5774.00
999.01	5692.00
999.44	5696.00
999.86	5896.00
1000.29	5683.00
1000.71	5760.00
1001.14	5890.00
1001.56	5806.00
1001.99	5840.00
1002.41	5765.00
1002.84	5795.00
1003.27	5624.00
1003.69	5622.00
1004.12	5644.00
1004.54	5600.00
1004.97	5498.00
1005.39	5450.00
1005.82	5470.00
1006.24	5474.00
1006.67	5426.00
1007.09	5348.00
1007.52	5434.00
1007.94	5368.00
1008.37	5585.00
1008.79	5471.00
1009.22	5450.00
1009.64	5446.00
1010.07	5516.00
1010.49	5505.00
1010.92	5450.00
1011.34	5476.00
1011.77	5466.00
1012.19	5442.00
1012.62	5532.00
1013.04	5368.00
1013.46	5424.00
1013.89	5238.00
1014.31	5288.00
1014.74	5238.00
1015.16	5254.00
1015.59	5168.00
1016.01	5196.00
1016.44	5218.00
1016.86	6159.00
1017.28	5160.00
1017.71	5214.00
1018.13	5438.00
1018.56	5350.00
1018.98	5426.00
1019.40	5307.00
1019.83	5342.00
1020.25	5404.00
1020.68	5458.00
1021.10	5502.00
1021.52	5454.00
1021.95	5684.00
1022.37	5420.00
1022.79	5484.00
1023.22	5414.00
1023.64	5392.00
1024.07	5294.00
1024.49	5348.00
1024.91	5310.00
1025.34	5292.00
1025.76	5354.00
1026.18	5178.00
1026.61	5224.00
1027.03	5204.00
1027.45	5222.00
1027.88	5182.00
1028.30	5364.00
1028.72	5240.00
1029.15	5284.00
1029.57	5283.00
1029.99	5318.00
1030.41	5220.00
1030.84	5336.00
1031.26	5290.00
1031.68	5254.00
1032.11	5265.00
1032.53	5120.00
1032.95	5156.00
1033.37	5200.00
1033.80	5166.00
1034.22	5062.00
1034.64	5176.00
1035.06	5016.00
1035.49	4986.00
1035.91	4978.00
1036.33	4910.00
1036.75	5015.00
1037.18	4934.00
1037.60	4946.00
1038.02	5019.00
1038.44	4997.00
1038.87	4923.00
1039.29	4922.00
1039.71	4924.00
1040.13	4974.00
1040.55	5038.00
1040.98	5014.00
1041.40	5002.00
1041.82	4956.00
1042.24	4912.00
1042.66	4936.00
1043.09	4804.00
1043.51	4816.00
1043.93	4758.00
1044.35	4712.00
1044.77	4748.00
1045.20	4758.00
1045.62	4664.00
1046.04	4708.00
1046.46	4726.00
1046.88	4606.00
1047.30	4706.00
1047.72	4712.00
1048.15	4648.00
1048.57	4632.00
1048.99	4568.00
1049.41	4576.00
1049.83	4670.00
1050.25	4730.00
1050.67	4619.00
1051.09	4600.00
1051.52	4610.00
1051.94	4480.00
1052.36	4572.00
1052.78	4478.00
1053.20	4542.00
1053.62	4538.00
1054.04	4562.00
1054.46	4546.00
1054.88	4634.00
1055.30	4569.00
1055.72	4591.00
1056.14	4501.00
1056.57	4696.00
1056.99	4417.00
1057.41	4384.00
1057.83	4424.00
1058.25	4336.00
1058.67	4337.00
1059.09	4313.00
1059.51	4378.00
1059.93	4336.00
1060.35	4285.00
1060.77	4322.00
1061.19	4350.00
1061.61	4300.00
1062.03	4298.00
1062.45	4263.00
1062.87	4345.00
1063.29	4323.00
1063.71	4262.00
1064.13	4284.00
1064.55	4254.00
1064.97	4308.00
1065.39	4290.00
1065.81	4188.00
1066.23	4212.00
1066.65	4196.00
1067.07	4331.00
1067.49	4220.00
1067.91	4132.00
1068.33	4110.00
1068.75	4230.00
1069.17	4233.00
1069.59	4166.00
1070.00	4068.00
1070.42	4131.00
1070.84	4114.00
1071.26	4068.00
1071.68	4047.00
1072.10	4132.00
1072.52	4094.00
1072.94	4034.00
1073.36	4056.00
1073.78	4054.00
1074.20	4128.00
1074.62	4050.00
1075.03	4032.00
1075.45	4074.00
1075.87	4102.00
1076.29	4012.00
1076.71	4100.00
1077.13	4112.00
1077.55	3986.00
1077.97	4039.00
1078.38	4022.00
1078.80	4032.00
1079.22	4046.00
1079.64	4025.00
1080.06	3998.00
1080.48	3987.00
1080.89	3948.00
1081.31	3985.00
1081.73	3978.00
1082.15	3940.00
1082.57	3986.00
1082.99	3969.00
1083.40	3926.00
1083.82	3978.00
1084.24	3902.00
1084.66	3904.00
1085.08	3902.00
1085.49	3811.00
1085.91	3928.00
1086.33	5327.00
1086.75	3892.00
1087.17	3892.00
1087.58	3830.00
1088.00	3866.00
1088.42	3970.00
1088.84	3840.00
1089.25	3820.00
1089.67	3888.00
1090.09	3836.00
1090.51	3781.00
1090.92	3894.00
1091.34	3830.00
1091.76	3848.00
1092.18	3818.00
1092.59	3810.00
1093.01	3796.00
1093.43	3796.00
1093.84	3750.00
1094.26	3836.00
1094.68	3785.00
1095.10	3713.00
1095.51	3788.00
1095.93	3730.00
1096.35	3814.00
1096.76	3793.00
1097.18	3809.00
1097.60	3736.00
1098.01	3731.00
1098.43	3704.00
1098.85	3727.00
1099.26	3690.00
1099.68	3725.00
1100.10	3684.00
1100.51	3670.00
1100.93	3700.00
1101.35	3730.00
1101.76	3676.00
1102.18	4260.00
1102.60	3757.00
1103.01	3560.00
1103.43	3698.00
1103.84	3708.00
1104.26	3642.00
1104.68	3656.00
1105.09	3576.00
1105.51	3574.00
1105.92	3722.00
1106.34	3578.00
1106.76	3698.00
1107.17	3670.00
1107.59	3666.00
1108.00	3524.00
1108.42	3604.00
1108.83	3553.00
1109.25	3562.00
1109.67	3535.00
1110.08	3566.00
1110.50	3502.00
1110.91	3560.00
1111.33	3523.00
1111.74	3559.00
1112.16	3569.00
1112.57	3574.00
1112.99	3498.00
1113.41	3549.00
1113.82	3524.00
1114.24	3560.00
1114.65	3530.00
1115.07	3458.00
1115.48	3278.00
1115.90	2192.00
1116.31	2223.00
1116.73	2215.00
1117.14	2221.00
>>>>>End Processed Spectral Data<<<<<
