SpectraSuite Data File
++++++++++++++++++++++++++++++++++++
Date: Tue May 29 13:19:43 EEST 2018
User: CanSEE
Dark Spectrum Present: No
Reference Spectrum Present: No
Number of Sampled Component Spectra: 1
Spectrometers: MAYP11278
Integration Time (usec): 220000 (MAYP11278)
Spectra Averaged: 1 (MAYP11278)
Boxcar Smoothing: 0 (MAYP11278)
Correct for Electrical Dark: No (MAYP11278)
Strobe/Lamp Enabled: No (MAYP11278)
Correct for Detector Non-linearity: No (MAYP11278)
Correct for Stray Light: No (MAYP11278)
Number of Pixels in Processed Spectrum: 2068
>>>>>Begin Processed Spectral Data<<<<<
187.82	2348.00
188.30	2243.00
188.78	2215.00
189.26	2219.00
189.73	3461.00
190.21	3602.00
190.69	3744.00
191.17	3731.00
191.64	3840.00
192.12	3757.00
192.60	3730.00
193.07	3749.00
193.55	3748.00
194.03	3766.00
194.51	3743.00
194.98	3730.00
195.46	3776.00
195.94	3729.00
196.42	3730.00
196.89	3865.00
197.37	3720.00
197.85	3702.00
198.32	3765.00
198.80	3745.00
199.28	3818.00
199.76	3798.00
200.23	3750.00
200.71	3736.00
201.19	3782.00
201.66	3772.00
202.14	3768.00
202.62	3688.00
203.09	3754.00
203.57	3686.00
204.05	3753.00
204.53	3819.00
205.00	3705.00
205.48	3720.00
205.96	3790.00
206.43	3722.00
206.91	3739.00
207.39	3865.00
207.86	3739.00
208.34	3762.00
208.82	3741.00
209.29	3801.00
209.77	3768.00
210.25	3756.00
210.72	3760.00
211.20	3766.00
211.68	3727.00
212.15	3702.00
212.63	3869.00
213.11	3792.00
213.58	3730.00
214.06	3865.00
214.53	3765.00
215.01	3823.00
215.49	3752.00
215.96	3768.00
216.44	3759.00
216.92	3802.00
217.39	3730.00
217.87	3767.00
218.35	3849.00
218.82	3722.00
219.30	3714.00
219.77	3740.00
220.25	3734.00
220.73	3819.00
221.20	3730.00
221.68	3774.00
222.15	3729.00
222.63	3750.00
223.11	3725.00
223.58	3818.00
224.06	3704.00
224.53	3712.00
225.01	3704.00
225.49	3716.00
225.96	3733.00
226.44	3708.00
226.91	3834.00
227.39	3753.00
227.87	3831.00
228.34	3758.00
228.82	3772.00
229.29	3778.00
229.77	3783.00
230.24	3751.00
230.72	3771.00
231.20	3826.00
231.67	3761.00
232.15	3731.00
232.62	3706.00
233.10	3762.00
233.57	3801.00
234.05	3936.00
234.53	3793.00
235.00	3719.00
235.48	3748.00
235.95	3803.00
236.43	3814.00
236.90	3878.00
237.38	3750.00
237.85	3726.00
238.33	3765.00
238.80	3785.00
239.28	3748.00
239.75	3726.00
240.23	3789.00
240.71	3846.00
241.18	3796.00
241.66	3717.00
242.13	3825.00
242.61	3821.00
243.08	3680.00
243.56	3747.00
244.03	3780.00
244.51	3859.00
244.98	3738.00
245.46	3804.00
245.93	5766.00
246.41	3692.00
246.88	3778.00
247.36	3802.00
247.83	3753.00
248.31	3832.00
248.78	3690.00
249.26	3775.00
249.73	3797.00
250.21	3788.00
250.68	3821.00
251.16	3785.00
251.63	3856.00
252.10	3842.00
252.58	3764.00
253.05	3862.00
253.53	3791.00
254.00	3750.00
254.48	3782.00
254.95	3803.00
255.43	3844.00
255.90	3758.00
256.38	3799.00
256.85	3810.00
257.33	3843.00
257.80	3914.00
258.27	3753.00
258.75	3789.00
259.22	3786.00
259.70	3780.00
260.17	3849.00
260.65	3816.00
261.12	3786.00
261.59	3855.00
262.07	3748.00
262.54	3773.00
263.02	3839.00
263.49	3698.00
263.97	3812.00
264.44	3838.00
264.91	3777.00
265.39	3790.00
265.86	3798.00
266.34	3834.00
266.81	3760.00
267.28	3804.00
267.76	3791.00
268.23	3785.00
268.71	3700.00
269.18	3782.00
269.65	3733.00
270.13	3805.00
270.60	3854.00
271.08	3774.00
271.55	3812.00
272.02	3764.00
272.50	3735.00
272.97	3708.00
273.44	3790.00
273.92	3901.00
274.39	3793.00
274.87	3846.00
275.34	3743.00
275.81	3757.00
276.29	3774.00
276.76	3807.00
277.23	3661.00
277.71	3716.00
278.18	3628.00
278.65	3899.00
279.13	3670.00
279.60	3760.00
280.07	4048.00
280.55	3994.00
281.02	4098.00
281.50	3858.00
281.97	3906.00
282.44	3833.00
282.91	3817.00
283.39	3866.00
283.86	3815.00
284.33	3744.00
284.81	3854.00
285.28	3827.00
285.75	3828.00
286.23	3874.00
286.70	3748.00
287.17	3794.00
287.65	3894.00
288.12	3725.00
288.59	3834.00
289.07	3724.00
289.54	3876.00
290.01	3786.00
290.48	3814.00
290.96	3820.00
291.43	3841.00
291.90	3920.00
292.38	3757.00
292.85	3876.00
293.32	3738.00
293.79	3816.00
294.27	3818.00
294.74	3782.00
295.21	3842.00
295.69	3825.00
296.16	3905.00
296.63	3889.00
297.10	3848.00
297.58	3850.00
298.05	3836.00
298.52	3789.00
298.99	3858.00
299.47	3870.00
299.94	3858.00
300.41	3770.00
300.88	3851.00
301.36	3830.00
301.83	3836.00
302.30	3731.00
302.77	3843.00
303.25	3882.00
303.72	3820.00
304.19	3811.00
304.66	3770.00
305.13	3879.00
305.61	3803.00
306.08	3810.00
306.55	3852.00
307.02	3780.00
307.49	3789.00
307.97	3836.00
308.44	3764.00
308.91	3822.00
309.38	3860.00
309.86	3830.00
310.33	3761.00
310.80	3834.00
311.27	3810.00
311.74	3867.00
312.21	3815.00
312.69	3936.00
313.16	3779.00
313.63	3792.00
314.10	3825.00
314.57	3755.00
315.05	3804.00
315.52	3841.00
315.99	3854.00
316.46	3788.00
316.93	3831.00
317.40	3831.00
317.88	3974.00
318.35	3839.00
318.82	3846.00
319.29	3763.00
319.76	3854.00
320.23	3892.00
320.70	3873.00
321.18	3820.00
321.65	3762.00
322.12	3789.00
322.59	3882.00
323.06	3781.00
323.53	3922.00
324.00	3775.00
324.48	3836.00
324.95	3768.00
325.42	3812.00
325.89	3791.00
326.36	3843.00
326.83	3876.00
327.30	3835.00
327.77	3871.00
328.24	3836.00
328.72	3840.00
329.19	3840.00
329.66	3818.00
330.13	3836.00
330.60	3844.00
331.07	3858.00
331.54	3938.00
332.01	3844.00
332.48	3900.00
332.95	3882.00
333.43	3890.00
333.90	3906.00
334.37	3841.00
334.84	3855.00
335.31	4042.00
335.78	3774.00
336.25	3801.00
336.72	3816.00
337.19	3822.00
337.66	3830.00
338.13	3797.00
338.60	3861.00
339.07	3824.00
339.54	3782.00
340.01	3754.00
340.49	3782.00
340.96	3800.00
341.43	3841.00
341.90	3746.00
342.37	3772.00
342.84	3852.00
343.31	3802.00
343.78	3769.00
344.25	3770.00
344.72	3777.00
345.19	3743.00
345.66	3828.00
346.13	3715.00
346.60	3736.00
347.07	3867.00
347.54	3775.00
348.01	3832.00
348.48	3784.00
348.95	3724.00
349.42	3792.00
349.89	3845.00
350.36	3799.00
350.83	3757.00
351.30	3810.00
351.77	3896.00
352.24	3821.00
352.71	3765.00
353.18	3807.00
353.65	3837.00
354.12	3786.00
354.59	3810.00
355.06	3825.00
355.53	3888.00
356.00	3729.00
356.47	3878.00
356.94	3741.00
357.41	3971.00
357.88	3864.00
358.35	3749.00
358.82	3756.00
359.28	3806.00
359.75	3769.00
360.22	3882.00
360.69	3910.00
361.16	3803.00
361.63	3778.00
362.10	3836.00
362.57	3758.00
363.04	3807.00
363.51	3901.00
363.98	3828.00
364.45	3785.00
364.92	3860.00
365.39	3771.00
365.86	3766.00
366.32	3814.00
366.79	3851.00
367.26	4634.00
367.73	4174.00
368.20	3737.00
368.67	3857.00
369.14	3756.00
369.61	3902.00
370.08	3798.00
370.55	3782.00
371.02	4590.00
371.48	3846.00
371.95	3814.00
372.42	3752.00
372.89	3814.00
373.36	3810.00
373.83	3779.00
374.30	3767.00
374.77	3825.00
375.23	3754.00
375.70	3890.00
376.17	3791.00
376.64	3792.00
377.11	3770.00
377.58	3822.00
378.05	3865.00
378.51	3830.00
378.98	3833.00
379.45	3838.00
379.92	3858.00
380.39	3940.00
380.86	3780.00
381.33	3902.00
381.79	3870.00
382.26	3781.00
382.73	3850.00
383.20	3846.00
383.67	3865.00
384.14	3834.00
384.60	4068.00
385.07	3818.00
385.54	3856.00
386.01	3765.00
386.48	3878.00
386.94	3777.00
387.41	3753.00
387.88	3871.00
388.35	3822.00
388.82	3882.00
389.28	3768.00
389.75	3824.00
390.22	3840.00
390.69	3834.00
391.16	3791.00
391.62	3755.00
392.09	3823.00
392.56	3766.00
393.03	3777.00
393.50	3970.00
393.96	3816.00
394.43	3882.00
394.90	3820.00
395.37	3860.00
395.83	4049.00
396.30	3756.00
396.77	3854.00
397.24	3892.00
397.70	3799.00
398.17	3810.00
398.64	3820.00
399.11	3775.00
399.57	3843.00
400.04	3770.00
400.51	3809.00
400.98	3784.00
401.44	3896.00
401.91	3842.00
402.38	3853.00
402.84	3781.00
403.31	3890.00
403.78	3841.00
404.25	3872.00
404.71	3938.00
405.18	3892.00
405.65	3796.00
406.12	3887.00
406.58	3843.00
407.05	3912.00
407.52	3811.00
407.98	4446.00
408.45	3815.00
408.92	3777.00
409.38	3876.00
409.85	3766.00
410.32	3859.00
410.78	3748.00
411.25	3891.00
411.72	3758.00
412.18	3744.00
412.65	3851.00
413.12	3824.00
413.59	3830.00
414.05	3801.00
414.52	3932.00
414.98	3809.00
415.45	3870.00
415.92	3838.00
416.38	3854.00
416.85	3884.00
417.32	3832.00
417.78	3775.00
418.25	3826.00
418.72	3810.00
419.18	3852.00
419.65	3796.00
420.12	3842.00
420.58	3770.00
421.05	3813.00
421.51	3787.00
421.98	3855.00
422.45	3778.00
422.91	3839.00
423.38	3827.00
423.85	3840.00
424.31	3796.00
424.78	3883.00
425.24	3812.00
425.71	3853.00
426.18	3785.00
426.64	3858.00
427.11	3863.00
427.57	3825.00
428.04	3766.00
428.51	3880.00
428.97	3857.00
429.44	3787.00
429.90	3812.00
430.37	3917.00
430.83	3804.00
431.30	3786.00
431.77	3922.00
432.23	3837.00
432.70	3826.00
433.16	3761.00
433.63	3840.00
434.09	3791.00
434.56	3876.00
435.03	3768.00
435.49	3851.00
435.96	3796.00
436.42	3750.00
436.89	3865.00
437.35	3834.00
437.82	3858.00
438.28	3790.00
438.75	3773.00
439.21	4019.00
439.68	3836.00
440.14	3859.00
440.61	3866.00
441.07	3782.00
441.54	3815.00
442.00	3980.00
442.47	3746.00
442.94	3832.00
443.40	3856.00
443.87	3759.00
444.33	3914.00
444.80	3821.00
445.26	3846.00
445.73	3809.00
446.19	3794.00
446.65	3800.00
447.12	3842.00
447.58	3764.00
448.05	3797.00
448.51	3816.00
448.98	3823.00
449.44	3783.00
449.91	3794.00
450.37	3770.00
450.84	3796.00
451.30	3803.00
451.77	3856.00
452.23	3771.00
452.70	3848.00
453.16	3803.00
453.62	3762.00
454.09	3778.00
454.55	3803.00
455.02	3783.00
455.48	3818.00
455.95	3792.00
456.41	3774.00
456.88	3880.00
457.34	3776.00
457.80	3756.00
458.27	3708.00
458.73	3770.00
459.20	3807.00
459.66	3774.00
460.13	3737.00
460.59	3718.00
461.05	3813.00
461.52	3755.00
461.98	3745.00
462.45	3741.00
462.91	3766.00
463.37	3712.00
463.84	3712.00
464.30	3678.00
464.76	3710.00
465.23	3664.00
465.69	3770.00
466.16	3742.00
466.62	3708.00
467.08	3684.00
467.55	3676.00
468.01	3708.00
468.48	3719.00
468.94	3682.00
469.40	3602.00
469.87	3715.00
470.33	3678.00
470.79	3648.00
471.26	3622.00
471.72	3600.00
472.18	3622.00
472.65	3660.00
473.11	3702.00
473.57	3634.00
474.04	3620.00
474.50	3620.00
474.96	3602.00
475.43	3682.00
475.89	3626.00
476.35	3684.00
476.82	3612.00
477.28	3640.00
477.74	3692.00
478.21	3640.00
478.67	3670.00
479.13	3579.00
479.59	3742.00
480.06	3660.00
480.52	3674.00
480.98	3576.00
481.45	3622.00
481.91	3622.00
482.37	3534.00
482.84	3630.00
483.30	3562.00
483.76	3632.00
484.22	3698.00
484.69	3601.00
485.15	3609.00
485.61	3520.00
486.07	3580.00
486.54	3530.00
487.00	3642.00
487.46	3578.00
487.92	3557.00
488.39	3570.00
488.85	3640.00
489.31	3584.00
489.77	3670.00
490.24	3518.00
490.70	3608.00
491.16	3549.00
491.62	3549.00
492.09	3554.00
492.55	3666.00
493.01	3638.00
493.47	3562.00
493.94	3583.00
494.40	3616.00
494.86	3604.00
495.32	3539.00
495.78	3652.00
496.25	3618.00
496.71	3626.00
497.17	3718.00
497.63	3713.00
498.09	3580.00
498.56	3640.00
499.02	3614.00
499.48	3771.00
499.94	3656.00
500.40	3603.00
500.87	3680.00
501.33	3634.00
501.79	3656.00
502.25	3641.00
502.71	3997.00
503.17	3678.00
503.64	3642.00
504.10	3662.00
504.56	3720.00
505.02	3731.00
505.48	3718.00
505.94	3742.00
506.40	3777.00
506.87	3752.00
507.33	3742.00
507.79	3794.00
508.25	3745.00
508.71	3759.00
509.17	3768.00
509.63	3817.00
510.10	3803.00
510.56	3798.00
511.02	3954.00
511.48	4000.00
511.94	3882.00
512.40	3876.00
512.86	3960.00
513.32	4036.00
513.78	3954.00
514.25	4122.00
514.71	4783.00
515.17	4064.00
515.63	4146.00
516.09	4184.00
516.55	4160.00
517.01	4330.00
517.47	4202.00
517.93	4268.00
518.39	4482.00
518.85	4324.00
519.32	4383.00
519.78	4432.00
520.24	4489.00
520.70	4610.00
521.16	4716.00
521.62	4754.00
522.08	4687.00
522.54	4848.00
523.00	4966.00
523.46	4991.00
523.92	4982.00
524.38	5180.00
524.84	5120.00
525.30	5198.00
525.76	5180.00
526.22	5079.00
526.68	5120.00
527.14	5250.00
527.60	5360.00
528.06	5546.00
528.52	5546.00
528.98	5618.00
529.44	5556.00
529.90	5712.00
530.36	5744.00
530.82	5787.00
531.28	5888.00
531.74	5740.00
532.20	5772.00
532.66	5832.00
533.12	5962.00
533.58	5912.00
534.04	5926.00
534.50	6010.00
534.96	5974.00
535.42	6104.00
535.88	6136.00
536.34	6180.00
536.80	6033.00
537.26	6220.00
537.72	6224.00
538.18	6168.00
538.64	6319.00
539.10	6234.00
539.56	6482.00
540.02	6142.00
540.48	6220.00
540.94	6228.00
541.40	6294.00
541.86	6394.00
542.32	6267.00
542.78	6264.00
543.24	6540.00
543.69	6385.00
544.15	6638.00
544.61	6434.00
545.07	6404.00
545.53	6444.00
545.99	6561.00
546.45	6520.00
546.91	6532.00
547.37	6478.00
547.83	6434.00
548.29	6480.00
548.74	6544.00
549.20	6591.00
549.66	6632.00
550.12	6550.00
550.58	6466.00
551.04	6656.00
551.50	6732.00
551.96	6708.00
552.42	6577.00
552.87	6586.00
553.33	6636.00
553.79	6698.00
554.25	6648.00
554.71	6724.00
555.17	6652.00
555.63	6712.00
556.08	6620.00
556.54	6644.00
557.00	6480.00
557.46	6474.00
557.92	6611.00
558.38	6368.00
558.83	6338.00
559.29	6305.00
559.75	6264.00
560.21	6350.00
560.67	6419.00
561.13	6362.00
561.58	6202.00
562.04	6285.00
562.50	6228.00
562.96	6250.00
563.42	6312.00
563.87	6131.00
564.33	6109.00
564.79	6077.00
565.25	5988.00
565.71	5974.00
566.16	6006.00
566.62	5854.00
567.08	5962.00
567.54	5912.00
568.00	5824.00
568.45	5707.00
568.91	5644.00
569.37	5787.00
569.83	5658.00
570.28	5530.00
570.74	5534.00
571.20	5496.00
571.66	5464.00
572.11	5466.00
572.57	5474.00
573.03	5382.00
573.49	5360.00
573.94	5354.00
574.40	5341.00
574.86	5224.00
575.32	5116.00
575.77	5182.00
576.23	5036.00
576.69	5208.00
577.15	5070.00
577.60	5058.00
578.06	5017.00
578.52	5098.00
578.97	5012.00
579.43	4976.00
579.89	5062.00
580.34	5015.00
580.80	4902.00
581.26	4940.00
581.72	4960.00
582.17	4988.00
582.63	4884.00
583.09	4895.00
583.54	4894.00
584.00	4790.00
584.46	4898.00
584.91	4814.00
585.37	4870.00
585.83	4762.00
586.28	4747.00
586.74	4770.00
587.20	4682.00
587.65	4786.00
588.11	4646.00
588.57	4656.00
589.02	4525.00
589.48	4488.00
589.94	4642.00
590.39	4660.00
590.85	4570.00
591.30	4628.00
591.76	4690.00
592.22	4628.00
592.67	4606.00
593.13	4594.00
593.59	4622.00
594.04	4542.00
594.50	4602.00
594.95	4630.00
595.41	4580.00
595.87	4530.00
596.32	4682.00
596.78	4642.00
597.23	4604.00
597.69	4600.00
598.15	4529.00
598.60	4568.00
599.06	4656.00
599.51	4562.00
599.97	4561.00
600.43	4606.00
600.88	4534.00
601.34	4610.00
601.79	4456.00
602.25	4700.00
602.70	4493.00
603.16	4567.00
603.61	4446.00
604.07	4406.00
604.53	4536.00
604.98	4511.00
605.44	4515.00
605.89	4466.00
606.35	4388.00
606.80	4495.00
607.26	4466.00
607.71	4430.00
608.17	4474.00
608.62	4432.00
609.08	4575.00
609.53	4406.00
609.99	4354.00
610.44	4344.00
610.90	4332.00
611.35	4256.00
611.81	4414.00
612.26	4306.00
612.72	4313.00
613.17	4392.00
613.63	4222.00
614.08	4192.00
614.54	4220.00
614.99	4164.00
615.45	4225.00
615.90	4251.00
616.36	4186.00
616.81	4164.00
617.27	4156.00
617.72	4270.00
618.18	4148.00
618.63	4198.00
619.09	4146.00
619.54	4225.00
619.99	4166.00
620.45	4243.00
620.90	4256.00
621.36	4134.00
621.81	4190.00
622.27	4258.00
622.72	4190.00
623.18	4116.00
623.63	4114.00
624.08	4148.00
624.54	4052.00
624.99	4090.00
625.45	4112.00
625.90	4079.00
626.35	4093.00
626.81	4182.00
627.26	4103.00
627.72	4114.00
628.17	4154.00
628.62	4067.00
629.08	4116.00
629.53	4156.00
629.99	4055.00
630.44	4104.00
630.89	4045.00
631.35	4134.00
631.80	4090.00
632.26	4162.00
632.71	4088.00
633.16	4072.00
633.62	4078.00
634.07	4082.00
634.52	3983.00
634.98	4088.00
635.43	4062.00
635.88	4019.00
636.34	4060.00
636.79	4068.00
637.24	4002.00
637.70	4086.00
638.15	4136.00
638.60	3978.00
639.06	4050.00
639.51	3979.00
639.96	3932.00
640.42	4002.00
640.87	4026.00
641.32	3928.00
641.78	3948.00
642.23	3940.00
642.68	3852.00
643.14	3882.00
643.59	3910.00
644.04	3845.00
644.49	3832.00
644.95	3866.00
645.40	3798.00
645.85	3850.00
646.31	3840.00
646.76	3904.00
647.21	3850.00
647.66	3838.00
648.12	3828.00
648.57	3776.00
649.02	3824.00
649.47	3796.00
649.93	4025.00
650.38	3712.00
650.83	3754.00
651.28	3744.00
651.74	3786.00
652.19	3712.00
652.64	3748.00
653.09	3730.00
653.55	3737.00
654.00	3768.00
654.45	3787.00
654.90	3732.00
655.35	3700.00
655.81	3779.00
656.26	3656.00
656.71	3728.00
657.16	3823.00
657.62	3760.00
658.07	3729.00
658.52	3771.00
658.97	3680.00
659.42	3930.00
659.88	3670.00
660.33	3792.00
660.78	3714.00
661.23	3692.00
661.68	3724.00
662.13	3650.00
662.59	3600.00
663.04	3724.00
663.49	3629.00
663.94	3636.00
664.39	3644.00
664.84	3626.00
665.30	3650.00
665.75	3598.00
666.20	3662.00
666.65	3654.00
667.10	3782.00
667.55	3676.00
668.00	3598.00
668.46	3680.00
668.91	3604.00
669.36	3794.00
669.81	3540.00
670.26	3599.00
670.71	3688.00
671.16	3662.00
671.61	3738.00
672.06	3785.00
672.52	3612.00
672.97	3640.00
673.42	3731.00
673.87	3810.00
674.32	3632.00
674.77	3654.00
675.22	3594.00
675.67	3626.00
676.12	3662.00
676.57	3640.00
677.02	3644.00
677.47	3620.00
677.93	3752.00
678.38	3636.00
678.83	3632.00
679.28	3692.00
679.73	3590.00
680.18	3640.00
680.63	3682.00
681.08	3554.00
681.53	3586.00
681.98	3646.00
682.43	3656.00
682.88	3725.00
683.33	3708.00
683.78	3692.00
684.23	3784.00
684.68	3710.00
685.13	3676.00
685.58	3747.00
686.03	3696.00
686.48	3648.00
686.93	3682.00
687.38	3698.00
687.83	3736.00
688.28	3772.00
688.73	3916.00
689.18	3880.00
689.63	3778.00
690.08	3842.00
690.53	3890.00
690.98	3908.00
691.43	3992.00
691.88	4024.00
692.33	4122.00
692.78	4186.00
693.23	4346.00
693.68	4374.00
694.13	4511.00
694.58	4547.00
695.03	4878.00
695.48	4844.00
695.93	4943.00
696.38	5200.00
696.83	5240.00
697.28	5407.00
697.72	5580.00
698.17	5710.00
698.62	5940.00
699.07	6130.00
699.52	6230.00
699.97	6444.00
700.42	6689.00
700.87	7026.00
701.32	7339.00
701.77	7336.00
702.22	7611.00
702.67	7810.00
703.11	8146.00
703.56	8490.00
704.01	8726.00
704.46	9172.00
704.91	9312.00
705.36	9698.00
705.81	9865.00
706.26	9988.00
706.70	10498.00
707.15	10774.00
707.60	10929.00
708.05	11334.00
708.50	11650.00
708.95	11854.00
709.40	12212.00
709.84	12604.00
710.29	12676.00
710.74	13028.00
711.19	13436.00
711.64	13644.00
712.09	14134.00
712.53	14322.00
712.98	14767.00
713.43	14979.00
713.88	15202.00
714.33	15614.00
714.78	15692.00
715.22	15872.00
715.67	16200.00
716.12	16120.00
716.57	15900.00
717.02	15598.00
717.46	15474.00
717.91	15384.00
718.36	15592.00
718.81	15516.00
719.26	15820.00
719.70	16252.00
720.15	16561.00
720.60	17440.00
721.05	18684.00
721.49	19574.00
721.94	20074.00
722.39	20294.00
722.84	19958.00
723.28	19622.00
723.73	19576.00
724.18	19800.00
724.63	20422.00
725.07	20632.00
725.52	21183.00
725.97	21578.00
726.42	22106.00
726.86	22498.00
727.31	22291.00
727.76	22720.00
728.21	23378.00
728.65	23443.00
729.10	23628.00
729.55	24360.00
729.99	24906.00
730.44	25282.00
730.89	25688.00
731.33	26422.00
731.78	27140.00
732.23	27960.00
732.68	28380.00
733.12	29198.00
733.57	29788.00
734.02	30384.00
734.46	30832.00
734.91	30968.00
735.36	31126.00
735.80	31628.00
736.25	31802.00
736.70	32197.00
737.14	32946.00
737.59	33152.00
738.04	33176.00
738.48	32926.00
738.93	33324.00
739.37	33896.00
739.82	34570.00
740.27	34808.00
740.71	34882.00
741.16	34904.00
741.61	35310.00
742.05	35528.00
742.50	35878.00
742.94	36208.00
743.39	36520.00
743.84	36552.00
744.28	36730.00
744.73	37078.00
745.18	37468.00
745.62	37472.00
746.07	37780.00
746.51	37790.00
746.96	37928.00
747.40	37702.00
747.85	37884.00
748.30	37874.00
748.74	37843.00
749.19	37718.00
749.63	38061.00
750.08	38008.00
750.52	38224.00
750.97	38136.00
751.42	38122.00
751.86	38378.00
752.31	38200.00
752.75	38184.00
753.20	38192.00
753.64	38346.00
754.09	38444.00
754.53	38386.00
754.98	38474.00
755.42	38412.00
755.87	38578.00
756.31	38256.00
756.76	38228.00
757.20	38102.00
757.65	37410.00
758.09	36932.00
758.54	35639.00
758.98	31720.00
759.43	25144.00
759.87	18290.00
760.32	14475.00
760.76	14638.00
761.21	17816.00
761.65	20952.00
762.10	22174.00
762.54	20978.00
762.99	19968.00
763.43	20647.00
763.88	21968.00
764.32	23681.00
764.77	25786.00
765.21	27496.00
765.66	29044.00
766.10	30438.00
766.54	32202.00
766.99	33398.00
767.43	34566.00
767.88	35093.00
768.32	35987.00
768.77	36540.00
769.21	37012.00
769.66	37337.00
770.10	37914.00
770.54	38168.00
770.99	38163.00
771.43	38112.00
771.88	37884.00
772.32	38242.00
772.76	38002.00
773.21	38046.00
773.65	37978.00
774.10	37608.00
774.54	37490.00
774.98	37690.00
775.43	38118.00
775.87	38558.00
776.31	38470.00
776.76	38444.00
777.20	38412.00
777.65	37918.00
778.09	37787.00
778.53	37834.00
778.98	37692.00
779.42	37598.00
779.86	37658.00
780.31	37536.00
780.75	37557.00
781.19	37828.00
781.64	38128.00
782.08	38084.00
782.52	37970.00
782.97	37646.00
783.41	37370.00
783.85	36910.00
784.30	36906.00
784.74	36872.00
785.18	36630.00
785.63	36634.00
786.07	36752.00
786.51	36743.00
786.95	37068.00
787.40	36724.00
787.84	36448.00
788.28	36302.00
788.73	36184.00
789.17	35636.00
789.61	35270.00
790.05	35465.00
790.50	34934.00
790.94	34934.00
791.38	34826.00
791.82	34977.00
792.27	35094.00
792.71	35322.00
793.15	35400.00
793.59	35212.00
794.04	34977.00
794.48	34754.00
794.92	34564.00
795.36	34416.00
795.81	33882.00
796.25	33954.00
796.69	34092.00
797.13	34424.00
797.57	34628.00
798.02	34896.00
798.46	35098.00
798.90	34976.00
799.34	34590.00
799.79	34382.00
800.23	33697.00
800.67	33428.00
801.11	33366.00
801.55	33350.00
801.99	33176.00
802.44	33160.00
802.88	33340.00
803.32	33726.00
803.76	33786.00
804.20	33991.00
804.64	33801.00
805.09	33938.00
805.53	33982.00
805.97	33563.00
806.41	33088.00
806.85	32872.00
807.29	32509.00
807.74	32480.00
808.18	32384.00
808.62	32366.00
809.06	32366.00
809.50	32496.00
809.94	32563.00
810.38	32700.00
810.82	32684.00
811.27	32480.00
811.71	31734.00
812.15	31312.00
812.59	30481.00
813.03	29881.00
813.47	28712.00
813.91	28042.00
814.35	27712.00
814.79	27614.00
815.23	27156.00
815.67	26826.00
816.12	27008.00
816.56	26934.00
817.00	27058.00
817.44	27484.00
817.88	27391.00
818.32	27058.00
818.76	27150.00
819.20	27018.00
819.64	27464.00
820.08	27676.00
820.52	28418.00
820.96	28780.00
821.40	28114.00
821.84	27370.00
822.28	26063.00
822.72	25809.00
823.16	25802.00
823.60	27336.00
824.04	28820.00
824.48	29236.00
824.92	29402.00
825.36	29214.00
825.80	28970.00
826.24	28564.00
826.68	28116.00
827.12	28130.00
827.56	27628.00
828.00	27603.00
828.44	28041.00
828.88	28340.00
829.32	28530.00
829.76	28597.00
830.20	29030.00
830.64	28708.00
831.08	28683.00
831.52	28184.00
831.96	27788.00
832.40	27358.00
832.84	27782.00
833.28	27916.00
833.72	28676.00
834.16	29004.00
834.60	29689.00
835.04	30152.00
835.48	30272.00
835.91	30466.00
836.35	30262.00
836.79	29954.00
837.23	29958.00
837.67	29467.00
838.11	29442.00
838.55	29464.00
838.99	29418.00
839.43	29640.00
839.87	29966.00
840.30	30196.00
840.74	30657.00
841.18	30844.00
841.62	31110.00
842.06	31000.00
842.50	31072.00
842.94	30672.00
843.38	30376.00
843.81	29914.00
844.25	29580.00
844.69	29201.00
845.13	29216.00
845.57	29152.00
846.01	29506.00
846.45	29601.00
846.88	30026.00
847.32	30318.00
847.76	30660.00
848.20	30672.00
848.64	30357.00
849.08	29953.00
849.51	29953.00
849.95	29185.00
850.39	29250.00
850.83	29845.00
851.27	29444.00
851.70	29228.00
852.14	28780.00
852.58	28250.00
853.02	27246.00
853.46	26718.00
853.89	26614.00
854.33	26518.00
854.77	27794.00
855.21	29682.00
855.65	30316.00
856.08	30552.00
856.52	30989.00
856.96	30534.00
857.40	29955.00
857.83	29498.00
858.27	28966.00
858.71	28502.00
859.15	28472.00
859.58	28698.00
860.02	28836.00
860.46	29292.00
860.89	29606.00
861.33	30089.00
861.77	30356.00
862.21	30612.00
862.64	30673.00
863.08	30683.00
863.52	30374.00
863.95	29798.00
864.39	29222.00
864.83	28148.00
865.27	27058.00
865.70	26954.00
866.14	26260.00
866.58	26394.00
867.01	27492.00
867.45	28508.00
867.89	28918.00
868.32	29718.00
868.76	30138.00
869.20	30168.00
869.63	30394.00
870.07	29732.00
870.51	29130.00
870.94	28634.00
871.38	28172.00
871.82	27514.00
872.25	27320.00
872.69	27350.00
873.13	27348.00
873.56	27768.00
874.00	28140.00
874.43	28536.00
874.87	28772.00
875.31	29260.00
875.74	29258.00
876.18	29650.00
876.61	29476.00
877.05	29351.00
877.49	28890.00
877.92	28574.00
878.36	28054.00
878.79	27664.00
879.23	27086.00
879.67	26596.00
880.10	26560.00
880.54	26573.00
880.97	26950.00
881.41	27528.00
881.84	28474.00
882.28	28724.00
882.72	29237.00
883.15	29688.00
883.59	29750.00
884.02	29608.00
884.46	29458.00
884.89	29010.00
885.33	28404.00
885.76	27726.00
886.20	27162.00
886.63	26698.00
887.07	26507.00
887.50	26562.00
887.94	26624.00
888.37	26788.00
888.81	27376.00
889.24	27548.00
889.68	27638.00
890.11	28094.00
890.55	28308.00
890.98	28496.00
891.42	28546.00
891.85	28390.00
892.29	28093.00
892.72	27547.00
893.16	26784.00
893.59	26024.00
894.03	25446.00
894.46	24514.00
894.90	23684.00
895.33	22834.00
895.77	22976.00
896.20	22595.00
896.63	22487.00
897.07	22692.00
897.50	22289.00
897.94	22894.00
898.37	23507.00
898.81	22028.00
899.24	22370.00
899.68	23470.00
900.11	22740.00
900.54	22410.00
900.98	22039.00
901.41	21912.00
901.85	22052.00
902.28	22094.00
902.71	22460.00
903.15	23239.00
903.58	23760.00
904.02	23730.00
904.45	23636.00
904.88	23556.00
905.32	23318.00
905.75	23192.00
906.18	22668.00
906.62	22640.00
907.05	22201.00
907.48	22306.00
907.92	21876.00
908.35	22216.00
908.79	21579.00
909.22	21608.00
909.65	21284.00
910.09	21256.00
910.52	20808.00
910.95	21034.00
911.38	21078.00
911.82	20470.00
912.25	20926.00
912.68	21244.00
913.12	21116.00
913.55	21266.00
913.98	21872.00
914.42	22852.00
914.85	22927.00
915.28	21802.00
915.72	22006.00
916.15	21592.00
916.58	21714.00
917.01	20958.00
917.45	20300.00
917.88	20940.00
918.31	21316.00
918.74	22044.00
919.18	22147.00
919.61	22044.00
920.04	22578.00
920.47	22753.00
920.91	23008.00
921.34	22796.00
921.77	23088.00
922.20	23516.00
922.64	23320.00
923.07	23248.00
923.50	23012.00
923.93	22674.00
924.37	22470.00
924.80	22012.00
925.23	21919.00
925.66	20918.00
926.09	20032.00
926.53	19676.00
926.96	18794.00
927.39	18156.00
927.82	17134.00
928.25	16544.00
928.69	16422.00
929.12	15944.00
929.55	15184.00
929.98	14692.00
930.41	13898.00
930.84	13308.00
931.28	12312.00
931.71	11542.00
932.14	10444.00
932.57	10296.00
933.00	9752.00
933.43	9486.00
933.86	8765.00
934.30	8730.00
934.73	9516.00
935.16	8912.00
935.59	8648.00
936.02	9016.00
936.45	8792.00
936.88	8918.00
937.31	9695.00
937.75	10040.00
938.18	10505.00
938.61	11040.00
939.04	11492.00
939.47	11124.00
939.90	10522.00
940.33	10246.00
940.76	9512.00
941.19	9156.00
941.62	9110.00
942.05	8828.00
942.48	7959.00
942.91	8172.00
943.35	8542.00
943.78	8008.00
944.21	7966.00
944.64	8622.00
945.07	8782.00
945.50	8617.00
945.93	8790.00
946.36	9088.00
946.79	9402.00
947.22	9778.00
947.65	9423.00
948.08	9340.00
948.51	9992.00
948.94	10040.00
949.37	9634.00
949.80	9216.00
950.23	9520.00
950.66	9883.00
951.09	9732.00
951.52	9266.00
951.95	9367.00
952.38	9737.00
952.81	10258.00
953.24	10704.00
953.67	10862.00
954.10	10668.00
954.53	11194.00
954.96	11040.00
955.39	11514.00
955.82	11970.00
956.25	11569.00
956.68	12002.00
957.11	12110.00
957.53	11651.00
957.96	11688.00
958.39	11312.00
958.82	10923.00
959.25	11334.00
959.68	11758.00
960.11	11904.00
960.54	12216.00
960.97	12772.00
961.40	13000.00
961.83	12674.00
962.26	13158.00
962.68	14138.00
963.11	14244.00
963.54	14348.00
963.97	14591.00
964.40	14598.00
964.83	14916.00
965.26	14914.00
965.69	14740.00
966.11	14612.00
966.54	14890.00
966.97	15446.00
967.40	15520.00
967.83	15676.00
968.26	15626.00
968.69	15621.00
969.11	15736.00
969.54	15660.00
969.97	15706.00
970.40	16004.00
970.83	15952.00
971.26	16086.00
971.68	16078.00
972.11	16166.00
972.54	16552.00
972.97	16228.00
973.40	16180.00
973.82	16324.00
974.25	16200.00
974.68	16016.00
975.11	15834.00
975.54	15500.00
975.96	15243.00
976.39	15286.00
976.82	15440.00
977.25	15136.00
977.67	14983.00
978.10	15222.00
978.53	15488.00
978.96	15796.00
979.38	16054.00
979.81	16420.00
980.24	16782.00
980.67	16964.00
981.09	17190.00
981.52	17348.00
981.95	17372.00
982.38	17480.00
982.80	17642.00
983.23	17898.00
983.66	17928.00
984.08	17630.00
984.51	17618.00
984.94	17424.00
985.37	17268.00
985.79	17032.00
986.22	16480.00
986.65	16410.00
987.07	16258.00
987.50	16296.00
987.93	16208.00
988.35	16206.00
988.78	16406.00
989.21	16440.00
989.63	16680.00
990.06	16972.00
990.49	17230.00
990.91	17514.00
991.34	17585.00
991.77	17652.00
992.19	17564.00
992.62	17664.00
993.05	17598.00
993.47	17482.00
993.90	17365.00
994.32	16926.00
994.75	16772.00
995.18	16372.00
995.60	16208.00
996.03	16031.00
996.45	15898.00
996.88	15740.00
997.31	15704.00
997.73	15678.00
998.16	15710.00
998.58	15826.00
999.01	15826.00
999.44	16060.00
999.86	16342.00
1000.29	16386.00
1000.71	16512.00
1001.14	16620.00
1001.56	16448.00
1001.99	16424.00
1002.41	16277.00
1002.84	16078.00
1003.27	15667.00
1003.69	15350.00
1004.12	15083.00
1004.54	14916.00
1004.97	14672.00
1005.39	14334.00
1005.82	14428.00
1006.24	14396.00
1006.67	14192.00
1007.09	14290.00
1007.52	14129.00
1007.94	14238.00
1008.37	14444.00
1008.79	14420.00
1009.22	14442.00
1009.64	14467.00
1010.07	14531.00
1010.49	14468.00
1010.92	14570.00
1011.34	14588.00
1011.77	14536.00
1012.19	14454.00
1012.62	14518.00
1013.04	14126.00
1013.46	14068.00
1013.89	13824.00
1014.31	13446.00
1014.74	13256.00
1015.16	13096.00
1015.59	12958.00
1016.01	13016.00
1016.44	12984.00
1016.86	14261.00
1017.28	13116.00
1017.71	13219.00
1018.13	13481.00
1018.56	13489.00
1018.98	13698.00
1019.40	13674.00
1019.83	13708.00
1020.25	13906.00
1020.68	13856.00
1021.10	14180.00
1021.52	14100.00
1021.95	14278.00
1022.37	14251.00
1022.79	14198.00
1023.22	14093.00
1023.64	13932.00
1024.07	13832.00
1024.49	13576.00
1024.91	13438.00
1025.34	13264.00
1025.76	13239.00
1026.18	13071.00
1026.61	12982.00
1027.03	12920.00
1027.45	12868.00
1027.88	13020.00
1028.30	13114.00
1028.72	13174.00
1029.15	13264.00
1029.57	13268.00
1029.99	13398.00
1030.41	13198.00
1030.84	13346.00
1031.26	13185.00
1031.68	13184.00
1032.11	13108.00
1032.53	12752.00
1032.95	12840.00
1033.37	12586.00
1033.80	12448.00
1034.22	12282.00
1034.64	12170.00
1035.06	11906.00
1035.49	11800.00
1035.91	11608.00
1036.33	11374.00
1036.75	11414.00
1037.18	11392.00
1037.60	11374.00
1038.02	11248.00
1038.44	11332.00
1038.87	11340.00
1039.29	11366.00
1039.71	11494.00
1040.13	11360.00
1040.55	11558.00
1040.98	11444.00
1041.40	11386.00
1041.82	11241.00
1042.24	11110.00
1042.66	11038.00
1043.09	10810.00
1043.51	10866.00
1043.93	10600.00
1044.35	10420.00
1044.77	10396.00
1045.20	10340.00
1045.62	10072.00
1046.04	10010.00
1046.46	9911.00
1046.88	9752.00
1047.30	9848.00
1047.72	9667.00
1048.15	9605.00
1048.57	9562.00
1048.99	9458.00
1049.41	9566.00
1049.83	9586.00
1050.25	9596.00
1050.67	9510.00
1051.09	9504.00
1051.52	9418.00
1051.94	9366.00
1052.36	9330.00
1052.78	9202.00
1053.20	9264.00
1053.62	9190.00
1054.04	9136.00
1054.46	9074.00
1054.88	9058.00
1055.30	8996.00
1055.72	8822.00
1056.14	8736.00
1056.57	8844.00
1056.99	8490.00
1057.41	8476.00
1057.83	8298.00
1058.25	8280.00
1058.67	8250.00
1059.09	8036.00
1059.51	8144.00
1059.93	7926.00
1060.35	7940.00
1060.77	7874.00
1061.19	7947.00
1061.61	7855.00
1062.03	7750.00
1062.45	7744.00
1062.87	7686.00
1063.29	7680.00
1063.71	7605.00
1064.13	7596.00
1064.55	7486.00
1064.97	7579.00
1065.39	7570.00
1065.81	7414.00
1066.23	7390.00
1066.65	7307.00
1067.07	7368.00
1067.49	7234.00
1067.91	7144.00
1068.33	7030.00
1068.75	7162.00
1069.17	7094.00
1069.59	6966.00
1070.00	6906.00
1070.42	6888.00
1070.84	6770.00
1071.26	6724.00
1071.68	6669.00
1072.10	6681.00
1072.52	6698.00
1072.94	6582.00
1073.36	6598.00
1073.78	6536.00
1074.20	6629.00
1074.62	6580.00
1075.03	6462.00
1075.45	6566.00
1075.87	6587.00
1076.29	6494.00
1076.71	6547.00
1077.13	6608.00
1077.55	6299.00
1077.97	6420.00
1078.38	6312.00
1078.80	6242.00
1079.22	6176.00
1079.64	6172.00
1080.06	6043.00
1080.48	6098.00
1080.89	5967.00
1081.31	5944.00
1081.73	5952.00
1082.15	5890.00
1082.57	5906.00
1082.99	5904.00
1083.40	5794.00
1083.82	5916.00
1084.24	5676.00
1084.66	5698.00
1085.08	5774.00
1085.49	5661.00
1085.91	5718.00
1086.33	7032.00
1086.75	5636.00
1087.17	5652.00
1087.58	5694.00
1088.00	5635.00
1088.42	5640.00
1088.84	5562.00
1089.25	5553.00
1089.67	5514.00
1090.09	5488.00
1090.51	5344.00
1090.92	5452.00
1091.34	5302.00
1091.76	5196.00
1092.18	5196.00
1092.59	5170.00
1093.01	5116.00
1093.43	5083.00
1093.84	5088.00
1094.26	5048.00
1094.68	4974.00
1095.10	4960.00
1095.51	4954.00
1095.93	4948.00
1096.35	5002.00
1096.76	4960.00
1097.18	4934.00
1097.60	4850.00
1098.01	4872.00
1098.43	4812.00
1098.85	4780.00
1099.26	4782.00
1099.68	4726.00
1100.10	4654.00
1100.51	4642.00
1100.93	4574.00
1101.35	4630.00
1101.76	4519.00
1102.18	5138.00
1102.60	4552.00
1103.01	4418.00
1103.43	4502.00
1103.84	4432.00
1104.26	4436.00
1104.68	4460.00
1105.09	4356.00
1105.51	4338.00
1105.92	4401.00
1106.34	4306.00
1106.76	4330.00
1107.17	4242.00
1107.59	4319.00
1108.00	4164.00
1108.42	4140.00
1108.83	4130.00
1109.25	4100.00
1109.67	4068.00
1110.08	4055.00
1110.50	4022.00
1110.91	4048.00
1111.33	3982.00
1111.74	3999.00
1112.16	3985.00
1112.57	3960.00
1112.99	3890.00
1113.41	3878.00
1113.82	3811.00
1114.24	3828.00
1114.65	3717.00
1115.07	3620.00
1115.48	3506.00
1115.90	2185.00
1116.31	2218.00
1116.73	2218.00
1117.14	2221.00
>>>>>End Processed Spectral Data<<<<<
