SpectraSuite Data File
++++++++++++++++++++++++++++++++++++
Date: Tue May 29 13:11:01 EEST 2018
User: CanSEE
Dark Spectrum Present: No
Reference Spectrum Present: No
Number of Sampled Component Spectra: 1
Spectrometers: MAYP11278
Integration Time (usec): 230000 (MAYP11278)
Spectra Averaged: 1 (MAYP11278)
Boxcar Smoothing: 0 (MAYP11278)
Correct for Electrical Dark: No (MAYP11278)
Strobe/Lamp Enabled: No (MAYP11278)
Correct for Detector Non-linearity: No (MAYP11278)
Correct for Stray Light: No (MAYP11278)
Number of Pixels in Processed Spectrum: 2068
>>>>>Begin Processed Spectral Data<<<<<
187.82	2336.00
188.30	2233.00
188.78	2205.00
189.26	2209.00
189.73	3183.00
190.21	3312.00
190.69	3370.00
191.17	3395.00
191.64	3465.00
192.12	3383.00
192.60	3391.00
193.07	3382.00
193.55	3401.00
194.03	3410.00
194.51	3382.00
194.98	3369.00
195.46	3465.00
195.94	3444.00
196.42	3435.00
196.89	3531.00
197.37	3407.00
197.85	3376.00
198.32	3399.00
198.80	3407.00
199.28	3406.00
199.76	3417.00
200.23	3411.00
200.71	3403.00
201.19	3476.00
201.66	3465.00
202.14	3429.00
202.62	3361.00
203.09	3441.00
203.57	3399.00
204.05	3464.00
204.53	3536.00
205.00	3419.00
205.48	3399.00
205.96	3484.00
206.43	3434.00
206.91	3479.00
207.39	3532.00
207.86	3455.00
208.34	3472.00
208.82	3407.00
209.29	3441.00
209.77	3495.00
210.25	3439.00
210.72	3419.00
211.20	3448.00
211.68	3430.00
212.15	3423.00
212.63	3496.00
213.11	3437.00
213.58	3407.00
214.06	3533.00
214.53	3457.00
215.01	3472.00
215.49	3449.00
215.96	3448.00
216.44	3440.00
216.92	3491.00
217.39	3421.00
217.87	3439.00
218.35	3480.00
218.82	3367.00
219.30	3426.00
219.77	3426.00
220.25	3461.00
220.73	3548.00
221.20	3393.00
221.68	3508.00
222.15	3406.00
222.63	3484.00
223.11	3435.00
223.58	3468.00
224.06	3429.00
224.53	3417.00
225.01	3386.00
225.49	3454.00
225.96	3441.00
226.44	3440.00
226.91	3495.00
227.39	3421.00
227.87	3493.00
228.34	3502.00
228.82	3467.00
229.29	3429.00
229.77	3457.00
230.24	3398.00
230.72	3448.00
231.20	3466.00
231.67	3431.00
232.15	3439.00
232.62	3389.00
233.10	3453.00
233.57	3465.00
234.05	3616.00
234.53	3472.00
235.00	3412.00
235.48	3451.00
235.95	3469.00
236.43	3500.00
236.90	3525.00
237.38	3435.00
237.85	3480.00
238.33	3477.00
238.80	3419.00
239.28	3423.00
239.75	3386.00
240.23	3466.00
240.71	3481.00
241.18	3448.00
241.66	3469.00
242.13	3477.00
242.61	3534.00
243.08	3415.00
243.56	3417.00
244.03	3499.00
244.51	3513.00
244.98	3425.00
245.46	3497.00
245.93	5267.00
246.41	3344.00
246.88	3433.00
247.36	3438.00
247.83	3463.00
248.31	3509.00
248.78	3379.00
249.26	3449.00
249.73	3462.00
250.21	3489.00
250.68	3541.00
251.16	3510.00
251.63	3557.00
252.10	3577.00
252.58	3453.00
253.05	3491.00
253.53	3456.00
254.00	3486.00
254.48	3487.00
254.95	3471.00
255.43	3520.00
255.90	3442.00
256.38	3489.00
256.85	3485.00
257.33	3511.00
257.80	3649.00
258.27	3515.00
258.75	3458.00
259.22	3492.00
259.70	3483.00
260.17	3538.00
260.65	3464.00
261.12	3465.00
261.59	3507.00
262.07	3448.00
262.54	3507.00
263.02	3476.00
263.49	3419.00
263.97	3482.00
264.44	3516.00
264.91	3488.00
265.39	3518.00
265.86	3552.00
266.34	3501.00
266.81	3454.00
267.28	3467.00
267.76	3468.00
268.23	3485.00
268.71	3356.00
269.18	3409.00
269.65	3423.00
270.13	3438.00
270.60	3477.00
271.08	3471.00
271.55	3514.00
272.02	3454.00
272.50	3432.00
272.97	3408.00
273.44	3440.00
273.92	3609.00
274.39	3466.00
274.87	3494.00
275.34	3411.00
275.81	3488.00
276.29	3464.00
276.76	3466.00
277.23	3365.00
277.71	3373.00
278.18	3341.00
278.65	3541.00
279.13	3392.00
279.60	3380.00
280.07	3708.00
280.55	3708.00
281.02	3781.00
281.50	3544.00
281.97	3631.00
282.44	3471.00
282.91	3528.00
283.39	3530.00
283.86	3455.00
284.33	3466.00
284.81	3568.00
285.28	3542.00
285.75	3532.00
286.23	3500.00
286.70	3430.00
287.17	3519.00
287.65	3563.00
288.12	3429.00
288.59	3500.00
289.07	3389.00
289.54	3525.00
290.01	3447.00
290.48	3514.00
290.96	3433.00
291.43	3561.00
291.90	3543.00
292.38	3420.00
292.85	3497.00
293.32	3452.00
293.79	3533.00
294.27	3507.00
294.74	3474.00
295.21	3481.00
295.69	3497.00
296.16	3563.00
296.63	3541.00
297.10	3528.00
297.58	3498.00
298.05	3480.00
298.52	3477.00
298.99	3584.00
299.47	3471.00
299.94	3504.00
300.41	3468.00
300.88	3500.00
301.36	3549.00
301.83	3505.00
302.30	3467.00
302.77	3513.00
303.25	3519.00
303.72	3457.00
304.19	3466.00
304.66	3423.00
305.13	3520.00
305.61	3497.00
306.08	3531.00
306.55	3539.00
307.02	3423.00
307.49	3492.00
307.97	3498.00
308.44	3473.00
308.91	3551.00
309.38	3515.00
309.86	3514.00
310.33	3465.00
310.80	3528.00
311.27	3473.00
311.74	3542.00
312.21	3476.00
312.69	3612.00
313.16	3429.00
313.63	3507.00
314.10	3503.00
314.57	3466.00
315.05	3482.00
315.52	3537.00
315.99	3542.00
316.46	3507.00
316.93	3535.00
317.40	3489.00
317.88	3616.00
318.35	3483.00
318.82	3534.00
319.29	3453.00
319.76	3511.00
320.23	3544.00
320.70	3525.00
321.18	3513.00
321.65	3443.00
322.12	3501.00
322.59	3613.00
323.06	3509.00
323.53	3650.00
324.00	3460.00
324.48	3577.00
324.95	3511.00
325.42	3473.00
325.89	3523.00
326.36	3496.00
326.83	3564.00
327.30	3580.00
327.77	3533.00
328.24	3547.00
328.72	3532.00
329.19	3479.00
329.66	3528.00
330.13	3515.00
330.60	3566.00
331.07	3535.00
331.54	3622.00
332.01	3523.00
332.48	3649.00
332.95	3603.00
333.43	3521.00
333.90	3572.00
334.37	3522.00
334.84	3561.00
335.31	3671.00
335.78	3473.00
336.25	3496.00
336.72	3556.00
337.19	3519.00
337.66	3527.00
338.13	3532.00
338.60	3578.00
339.07	3568.00
339.54	3474.00
340.01	3469.00
340.49	3501.00
340.96	3557.00
341.43	3579.00
341.90	3513.00
342.37	3524.00
342.84	3601.00
343.31	3521.00
343.78	3483.00
344.25	3470.00
344.72	3504.00
345.19	3540.00
345.66	3554.00
346.13	3515.00
346.60	3514.00
347.07	3579.00
347.54	3500.00
348.01	3604.00
348.48	3549.00
348.95	3476.00
349.42	3496.00
349.89	3566.00
350.36	3529.00
350.83	3463.00
351.30	3535.00
351.77	3612.00
352.24	3555.00
352.71	3539.00
353.18	3526.00
353.65	3576.00
354.12	3531.00
354.59	3542.00
355.06	3519.00
355.53	3636.00
356.00	3504.00
356.47	3604.00
356.94	3505.00
357.41	3697.00
357.88	3567.00
358.35	3453.00
358.82	3487.00
359.28	3525.00
359.75	3473.00
360.22	3571.00
360.69	3585.00
361.16	3528.00
361.63	3510.00
362.10	3567.00
362.57	3553.00
363.04	3531.00
363.51	3616.00
363.98	3539.00
364.45	3511.00
364.92	3604.00
365.39	3494.00
365.86	3477.00
366.32	3515.00
366.79	3549.00
367.26	4482.00
367.73	3888.00
368.20	3500.00
368.67	3578.00
369.14	3501.00
369.61	3570.00
370.08	3522.00
370.55	3519.00
371.02	4313.00
371.48	3547.00
371.95	3510.00
372.42	3503.00
372.89	3543.00
373.36	3544.00
373.83	3521.00
374.30	3512.00
374.77	3509.00
375.23	3512.00
375.70	3556.00
376.17	3512.00
376.64	3514.00
377.11	3481.00
377.58	3522.00
378.05	3514.00
378.51	3511.00
378.98	3530.00
379.45	3507.00
379.92	3597.00
380.39	3666.00
380.86	3533.00
381.33	3590.00
381.79	3612.00
382.26	3474.00
382.73	3528.00
383.20	3498.00
383.67	3568.00
384.14	3528.00
384.60	3782.00
385.07	3519.00
385.54	3497.00
386.01	3546.00
386.48	3646.00
386.94	3489.00
387.41	3488.00
387.88	3542.00
388.35	3541.00
388.82	3611.00
389.28	3538.00
389.75	3570.00
390.22	3549.00
390.69	3567.00
391.16	3519.00
391.62	3507.00
392.09	3539.00
392.56	3536.00
393.03	3525.00
393.50	3631.00
393.96	3529.00
394.43	3582.00
394.90	3527.00
395.37	3597.00
395.83	3745.00
396.30	3473.00
396.77	3515.00
397.24	3564.00
397.70	3495.00
398.17	3556.00
398.64	3523.00
399.11	3528.00
399.57	3605.00
400.04	3492.00
400.51	3528.00
400.98	3496.00
401.44	3593.00
401.91	3571.00
402.38	3546.00
402.84	3512.00
403.31	3607.00
403.78	3548.00
404.25	3640.00
404.71	3618.00
405.18	3578.00
405.65	3481.00
406.12	3595.00
406.58	3569.00
407.05	3625.00
407.52	3565.00
407.98	4095.00
408.45	3595.00
408.92	3450.00
409.38	3592.00
409.85	3503.00
410.32	3616.00
410.78	3548.00
411.25	3606.00
411.72	3587.00
412.18	3469.00
412.65	3574.00
413.12	3565.00
413.59	3584.00
414.05	3581.00
414.52	3705.00
414.98	3576.00
415.45	3644.00
415.92	3607.00
416.38	3597.00
416.85	3654.00
417.32	3624.00
417.78	3587.00
418.25	3616.00
418.72	3628.00
419.18	3661.00
419.65	3562.00
420.12	3641.00
420.58	3583.00
421.05	3621.00
421.51	3611.00
421.98	3627.00
422.45	3563.00
422.91	3631.00
423.38	3628.00
423.85	3647.00
424.31	3614.00
424.78	3674.00
425.24	3622.00
425.71	3706.00
426.18	3645.00
426.64	3741.00
427.11	3675.00
427.57	3673.00
428.04	3581.00
428.51	3687.00
428.97	3622.00
429.44	3615.00
429.90	3657.00
430.37	3753.00
430.83	3578.00
431.30	3654.00
431.77	3763.00
432.23	3694.00
432.70	3673.00
433.16	3590.00
433.63	3679.00
434.09	3676.00
434.56	3701.00
435.03	3671.00
435.49	3718.00
435.96	3707.00
436.42	3652.00
436.89	3729.00
437.35	3687.00
437.82	3694.00
438.28	3635.00
438.75	3688.00
439.21	3877.00
439.68	3723.00
440.14	3735.00
440.61	3767.00
441.07	3680.00
441.54	3710.00
442.00	3901.00
442.47	3719.00
442.94	3713.00
443.40	3717.00
443.87	3677.00
444.33	3829.00
444.80	3781.00
445.26	3749.00
445.73	3780.00
446.19	3761.00
446.65	3720.00
447.12	3729.00
447.58	3725.00
448.05	3703.00
448.51	3795.00
448.98	3824.00
449.44	3738.00
449.91	3680.00
450.37	3775.00
450.84	3767.00
451.30	3821.00
451.77	3777.00
452.23	3727.00
452.70	3817.00
453.16	3749.00
453.62	3773.00
454.09	3781.00
454.55	3803.00
455.02	3767.00
455.48	3754.00
455.95	3828.00
456.41	3736.00
456.88	3823.00
457.34	3764.00
457.80	3784.00
458.27	3699.00
458.73	3774.00
459.20	3758.00
459.66	3777.00
460.13	3712.00
460.59	3729.00
461.05	3810.00
461.52	3776.00
461.98	3671.00
462.45	3747.00
462.91	3790.00
463.37	3703.00
463.84	3709.00
464.30	3735.00
464.76	3699.00
465.23	3684.00
465.69	3743.00
466.16	3769.00
466.62	3746.00
467.08	3716.00
467.55	3710.00
468.01	3675.00
468.48	3705.00
468.94	3687.00
469.40	3642.00
469.87	3658.00
470.33	3642.00
470.79	3628.00
471.26	3643.00
471.72	3690.00
472.18	3671.00
472.65	3671.00
473.11	3718.00
473.57	3675.00
474.04	3689.00
474.50	3615.00
474.96	3630.00
475.43	3717.00
475.89	3661.00
476.35	3677.00
476.82	3659.00
477.28	3661.00
477.74	3713.00
478.21	3683.00
478.67	3711.00
479.13	3668.00
479.59	3759.00
480.06	3703.00
480.52	3659.00
480.98	3659.00
481.45	3685.00
481.91	3633.00
482.37	3647.00
482.84	3678.00
483.30	3597.00
483.76	3633.00
484.22	3765.00
484.69	3647.00
485.15	3595.00
485.61	3561.00
486.07	3561.00
486.54	3550.00
487.00	3609.00
487.46	3617.00
487.92	3573.00
488.39	3620.00
488.85	3636.00
489.31	3625.00
489.77	3709.00
490.24	3601.00
490.70	3667.00
491.16	3604.00
491.62	3635.00
492.09	3591.00
492.55	3694.00
493.01	3675.00
493.47	3683.00
493.94	3673.00
494.40	3695.00
494.86	3655.00
495.32	3671.00
495.78	3669.00
496.25	3663.00
496.71	3709.00
497.17	3765.00
497.63	3739.00
498.09	3674.00
498.56	3703.00
499.02	3725.00
499.48	3872.00
499.94	3720.00
500.40	3661.00
500.87	3721.00
501.33	3731.00
501.79	3789.00
502.25	3794.00
502.71	4053.00
503.17	3736.00
503.64	3763.00
504.10	3767.00
504.56	3808.00
505.02	3879.00
505.48	3790.00
505.94	3848.00
506.40	3917.00
506.87	3846.00
507.33	3898.00
507.79	3873.00
508.25	3900.00
508.71	3912.00
509.17	3874.00
509.63	3933.00
510.10	3950.00
510.56	3954.00
511.02	4034.00
511.48	4111.00
511.94	3979.00
512.40	4029.00
512.86	4063.00
513.32	4130.00
513.78	4052.00
514.25	4197.00
514.71	4823.00
515.17	4099.00
515.63	4213.00
516.09	4249.00
516.55	4176.00
517.01	4281.00
517.47	4255.00
517.93	4260.00
518.39	4425.00
518.85	4373.00
519.32	4379.00
519.78	4406.00
520.24	4487.00
520.70	4593.00
521.16	4557.00
521.62	4632.00
522.08	4670.00
522.54	4703.00
523.00	4811.00
523.46	4788.00
523.92	4846.00
524.38	4999.00
524.84	4945.00
525.30	4991.00
525.76	4973.00
526.22	4843.00
526.68	4855.00
527.14	4910.00
527.60	5041.00
528.06	5118.00
528.52	5147.00
528.98	5182.00
529.44	5183.00
529.90	5210.00
530.36	5287.00
530.82	5296.00
531.28	5378.00
531.74	5357.00
532.20	5229.00
532.66	5243.00
533.12	5364.00
533.58	5361.00
534.04	5304.00
534.50	5405.00
534.96	5456.00
535.42	5514.00
535.88	5483.00
536.34	5495.00
536.80	5359.00
537.26	5542.00
537.72	5565.00
538.18	5560.00
538.64	5617.00
539.10	5591.00
539.56	5752.00
540.02	5454.00
540.48	5527.00
540.94	5525.00
541.40	5509.00
541.86	5640.00
542.32	5648.00
542.78	5625.00
543.24	5749.00
543.69	5642.00
544.15	5817.00
544.61	5721.00
545.07	5670.00
545.53	5747.00
545.99	5725.00
546.45	5719.00
546.91	5680.00
547.37	5678.00
547.83	5731.00
548.29	5723.00
548.74	5743.00
549.20	5725.00
549.66	5851.00
550.12	5777.00
550.58	5723.00
551.04	5793.00
551.50	5875.00
551.96	5895.00
552.42	5745.00
552.87	5766.00
553.33	5875.00
553.79	5842.00
554.25	5809.00
554.71	5847.00
555.17	5823.00
555.63	5935.00
556.08	5822.00
556.54	5849.00
557.00	5665.00
557.46	5789.00
557.92	5863.00
558.38	5595.00
558.83	5603.00
559.29	5676.00
559.75	5632.00
560.21	5661.00
560.67	5709.00
561.13	5681.00
561.58	5635.00
562.04	5584.00
562.50	5639.00
562.96	5658.00
563.42	5692.00
563.87	5564.00
564.33	5615.00
564.79	5561.00
565.25	5477.00
565.71	5465.00
566.16	5520.00
566.62	5463.00
567.08	5457.00
567.54	5497.00
568.00	5452.00
568.45	5318.00
568.91	5341.00
569.37	5393.00
569.83	5291.00
570.28	5203.00
570.74	5209.00
571.20	5245.00
571.66	5230.00
572.11	5244.00
572.57	5259.00
573.03	5175.00
573.49	5140.00
573.94	5124.00
574.40	5165.00
574.86	5123.00
575.32	4997.00
575.77	5008.00
576.23	4960.00
576.69	5085.00
577.15	4981.00
577.60	4985.00
578.06	4933.00
578.52	5038.00
578.97	5005.00
579.43	4946.00
579.89	4932.00
580.34	4973.00
580.80	4905.00
581.26	4913.00
581.72	4947.00
582.17	4931.00
582.63	4872.00
583.09	4881.00
583.54	4895.00
584.00	4856.00
584.46	4870.00
584.91	4815.00
585.37	4905.00
585.83	4747.00
586.28	4841.00
586.74	4809.00
587.20	4802.00
587.65	4851.00
588.11	4701.00
588.57	4645.00
589.02	4574.00
589.48	4554.00
589.94	4648.00
590.39	4740.00
590.85	4646.00
591.30	4682.00
591.76	4697.00
592.22	4637.00
592.67	4693.00
593.13	4669.00
593.59	4648.00
594.04	4661.00
594.50	4576.00
594.95	4675.00
595.41	4597.00
595.87	4594.00
596.32	4713.00
596.78	4725.00
597.23	4701.00
597.69	4623.00
598.15	4564.00
598.60	4615.00
599.06	4695.00
599.51	4621.00
599.97	4667.00
600.43	4661.00
600.88	4637.00
601.34	4623.00
601.79	4520.00
602.25	4705.00
602.70	4530.00
603.16	4636.00
603.61	4547.00
604.07	4513.00
604.53	4587.00
604.98	4570.00
605.44	4596.00
605.89	4523.00
606.35	4497.00
606.80	4507.00
607.26	4443.00
607.71	4508.00
608.17	4527.00
608.62	4519.00
609.08	4574.00
609.53	4482.00
609.99	4418.00
610.44	4411.00
610.90	4353.00
611.35	4384.00
611.81	4508.00
612.26	4434.00
612.72	4411.00
613.17	4528.00
613.63	4272.00
614.08	4228.00
614.54	4319.00
614.99	4275.00
615.45	4305.00
615.90	4255.00
616.36	4203.00
616.81	4279.00
617.27	4278.00
617.72	4306.00
618.18	4231.00
618.63	4241.00
619.09	4253.00
619.54	4290.00
619.99	4288.00
620.45	4314.00
620.90	4326.00
621.36	4251.00
621.81	4264.00
622.27	4303.00
622.72	4263.00
623.18	4183.00
623.63	4201.00
624.08	4241.00
624.54	4126.00
624.99	4159.00
625.45	4187.00
625.90	4088.00
626.35	4224.00
626.81	4229.00
627.26	4169.00
627.72	4201.00
628.17	4233.00
628.62	4088.00
629.08	4183.00
629.53	4148.00
629.99	4126.00
630.44	4224.00
630.89	4183.00
631.35	4163.00
631.80	4173.00
632.26	4147.00
632.71	4140.00
633.16	4145.00
633.62	4134.00
634.07	4149.00
634.52	4113.00
634.98	4151.00
635.43	4175.00
635.88	4059.00
636.34	4161.00
636.79	4087.00
637.24	4091.00
637.70	4161.00
638.15	4213.00
638.60	4106.00
639.06	4076.00
639.51	4066.00
639.96	4035.00
640.42	4087.00
640.87	4114.00
641.32	3979.00
641.78	3999.00
642.23	3991.00
642.68	3974.00
643.14	3963.00
643.59	3973.00
644.04	3976.00
644.49	3908.00
644.95	3893.00
645.40	3903.00
645.85	3915.00
646.31	3907.00
646.76	3858.00
647.21	3938.00
647.66	3889.00
648.12	3912.00
648.57	3809.00
649.02	3887.00
649.47	3818.00
649.93	4035.00
650.38	3823.00
650.83	3866.00
651.28	3809.00
651.74	3783.00
652.19	3769.00
652.64	3831.00
653.09	3775.00
653.55	3796.00
654.00	3843.00
654.45	3837.00
654.90	3787.00
655.35	3717.00
655.81	3756.00
656.26	3684.00
656.71	3682.00
657.16	3764.00
657.62	3756.00
658.07	3721.00
658.52	3742.00
658.97	3717.00
659.42	3923.00
659.88	3699.00
660.33	3766.00
660.78	3697.00
661.23	3699.00
661.68	3712.00
662.13	3659.00
662.59	3615.00
663.04	3678.00
663.49	3654.00
663.94	3641.00
664.39	3648.00
664.84	3590.00
665.30	3647.00
665.75	3557.00
666.20	3654.00
666.65	3597.00
667.10	3749.00
667.55	3650.00
668.00	3575.00
668.46	3601.00
668.91	3581.00
669.36	3656.00
669.81	3557.00
670.26	3559.00
670.71	3664.00
671.16	3573.00
671.61	3679.00
672.06	3696.00
672.52	3560.00
672.97	3543.00
673.42	3619.00
673.87	3705.00
674.32	3560.00
674.77	3609.00
675.22	3500.00
675.67	3514.00
676.12	3555.00
676.57	3558.00
677.02	3541.00
677.47	3558.00
677.93	3642.00
678.38	3534.00
678.83	3501.00
679.28	3579.00
679.73	3526.00
680.18	3589.00
680.63	3579.00
681.08	3468.00
681.53	3515.00
681.98	3547.00
682.43	3586.00
682.88	3640.00
683.33	3605.00
683.78	3595.00
684.23	3692.00
684.68	3605.00
685.13	3646.00
685.58	3593.00
686.03	3655.00
686.48	3577.00
686.93	3600.00
687.38	3561.00
687.83	3619.00
688.28	3658.00
688.73	3815.00
689.18	3729.00
689.63	3674.00
690.08	3759.00
690.53	3807.00
690.98	3803.00
691.43	3866.00
691.88	3859.00
692.33	3967.00
692.78	3952.00
693.23	4105.00
693.68	4116.00
694.13	4165.00
694.58	4191.00
695.03	4404.00
695.48	4302.00
695.93	4417.00
696.38	4613.00
696.83	4524.00
697.28	4593.00
697.72	4629.00
698.17	4672.00
698.62	4803.00
699.07	4856.00
699.52	4855.00
699.97	4895.00
700.42	5066.00
700.87	5111.00
701.32	5338.00
701.77	5161.00
702.22	5320.00
702.67	5299.00
703.11	5315.00
703.56	5501.00
704.01	5610.00
704.46	5689.00
704.91	5827.00
705.36	5842.00
705.81	5852.00
706.26	5937.00
706.70	6010.00
707.15	6121.00
707.60	6101.00
708.05	6204.00
708.50	6273.00
708.95	6299.00
709.40	6428.00
709.84	6493.00
710.29	6508.00
710.74	6569.00
711.19	6675.00
711.64	6678.00
712.09	6785.00
712.53	6809.00
712.98	6881.00
713.43	6903.00
713.88	7027.00
714.33	7100.00
714.78	6975.00
715.22	7020.00
715.67	7039.00
716.12	7048.00
716.57	6831.00
717.02	6628.00
717.46	6575.00
717.91	6630.00
718.36	6604.00
718.81	6425.00
719.26	6549.00
719.70	6595.00
720.15	6701.00
720.60	6796.00
721.05	7175.00
721.49	7445.00
721.94	7590.00
722.39	7550.00
722.84	7469.00
723.28	7271.00
723.73	7223.00
724.18	7089.00
724.63	7405.00
725.07	7339.00
725.52	7352.00
725.97	7497.00
726.42	7624.00
726.86	7753.00
727.31	7521.00
727.76	7711.00
728.21	7793.00
728.65	7692.00
729.10	7821.00
729.55	7881.00
729.99	8063.00
730.44	7993.00
730.89	8079.00
731.33	8199.00
731.78	8385.00
732.23	8466.00
732.68	8595.00
733.12	8798.00
733.57	8851.00
734.02	8917.00
734.46	9114.00
734.91	9133.00
735.36	9120.00
735.80	9293.00
736.25	9130.00
736.70	9277.00
737.14	9480.00
737.59	9454.00
738.04	9305.00
738.48	9406.00
738.93	9432.00
739.37	9435.00
739.82	9673.00
740.27	9658.00
740.71	9629.00
741.16	9639.00
741.61	9605.00
742.05	9735.00
742.50	9812.00
742.94	9825.00
743.39	9769.00
743.84	9829.00
744.28	9995.00
744.73	9928.00
745.18	10040.00
745.62	10071.00
746.07	10112.00
746.51	10011.00
746.96	10079.00
747.40	10027.00
747.85	9986.00
748.30	9949.00
748.74	10011.00
749.19	10022.00
749.63	10130.00
750.08	10055.00
750.52	10023.00
750.97	9881.00
751.42	10037.00
751.86	9983.00
752.31	9920.00
752.75	10057.00
753.20	9854.00
753.64	9936.00
754.09	9948.00
754.53	9951.00
754.98	10140.00
755.42	10075.00
755.87	9969.00
756.31	9984.00
756.76	9825.00
757.20	9879.00
757.65	9861.00
758.09	9752.00
758.54	9418.00
758.98	8674.00
759.43	7366.00
759.87	5927.00
760.32	5177.00
760.76	5080.00
761.21	5695.00
761.65	6425.00
762.10	6583.00
762.54	6283.00
762.99	6153.00
763.43	6182.00
763.88	6418.00
764.32	6741.00
764.77	7157.00
765.21	7610.00
765.66	7847.00
766.10	8207.00
766.54	8478.00
766.99	8827.00
767.43	9125.00
767.88	9313.00
768.32	9380.00
768.77	9421.00
769.21	9738.00
769.66	9537.00
770.10	9906.00
770.54	9806.00
770.99	9765.00
771.43	9896.00
771.88	9836.00
772.32	9843.00
772.76	9805.00
773.21	9817.00
773.65	9790.00
774.10	9697.00
774.54	9607.00
774.98	9776.00
775.43	9817.00
775.87	9992.00
776.31	9900.00
776.76	9930.00
777.20	9909.00
777.65	9811.00
778.09	9717.00
778.53	9677.00
778.98	9744.00
779.42	9752.00
779.86	9735.00
780.31	9767.00
780.75	9785.00
781.19	9817.00
781.64	9709.00
782.08	9811.00
782.52	9678.00
782.97	9742.00
783.41	9626.00
783.85	9577.00
784.30	9595.00
784.74	9483.00
785.18	9588.00
785.63	9484.00
786.07	9551.00
786.51	9573.00
786.95	9567.00
787.40	9440.00
787.84	9451.00
788.28	9396.00
788.73	9416.00
789.17	9317.00
789.61	9227.00
790.05	9165.00
790.50	9067.00
790.94	9065.00
791.38	9187.00
791.82	9133.00
792.27	9111.00
792.71	9200.00
793.15	9412.00
793.59	9271.00
794.04	9143.00
794.48	9028.00
794.92	9088.00
795.36	8932.00
795.81	8926.00
796.25	8952.00
796.69	8950.00
797.13	9029.00
797.57	8969.00
798.02	9100.00
798.46	9225.00
798.90	9147.00
799.34	9013.00
799.79	8969.00
800.23	8836.00
800.67	8789.00
801.11	8737.00
801.55	8809.00
801.99	8759.00
802.44	8774.00
802.88	8865.00
803.32	8905.00
803.76	8890.00
804.20	8901.00
804.64	8838.00
805.09	8950.00
805.53	8934.00
805.97	8833.00
806.41	8865.00
806.85	8800.00
807.29	8673.00
807.74	8571.00
808.18	8569.00
808.62	8669.00
809.06	8584.00
809.50	8601.00
809.94	8488.00
810.38	8593.00
810.82	8656.00
811.27	8704.00
811.71	8454.00
812.15	8275.00
812.59	8189.00
813.03	8129.00
813.47	7864.00
813.91	7697.00
814.35	7599.00
814.79	7599.00
815.23	7499.00
815.67	7376.00
816.12	7393.00
816.56	7396.00
817.00	7520.00
817.44	7546.00
817.88	7548.00
818.32	7479.00
818.76	7485.00
819.20	7502.00
819.64	7565.00
820.08	7577.00
820.52	7670.00
820.96	7895.00
821.40	7660.00
821.84	7573.00
822.28	7296.00
822.72	7195.00
823.16	7180.00
823.60	7393.00
824.04	7886.00
824.48	7991.00
824.92	7947.00
825.36	7900.00
825.80	7797.00
826.24	7736.00
826.68	7649.00
827.12	7716.00
827.56	7608.00
828.00	7700.00
828.44	7586.00
828.88	7711.00
829.32	7769.00
829.76	7781.00
830.20	7957.00
830.64	7751.00
831.08	7900.00
831.52	7689.00
831.96	7625.00
832.40	7423.00
832.84	7625.00
833.28	7575.00
833.72	7837.00
834.16	7754.00
834.60	8046.00
835.04	8043.00
835.48	8181.00
835.91	8111.00
836.35	8148.00
836.79	8083.00
837.23	8074.00
837.67	7928.00
838.11	7909.00
838.55	7929.00
838.99	7924.00
839.43	8035.00
839.87	8111.00
840.30	8129.00
840.74	8243.00
841.18	8149.00
841.62	8254.00
842.06	8227.00
842.50	8250.00
842.94	8266.00
843.38	8068.00
843.81	8021.00
844.25	7936.00
844.69	7869.00
845.13	7945.00
845.57	7971.00
846.01	7995.00
846.45	8088.00
846.88	8013.00
847.32	8081.00
847.76	8175.00
848.20	8289.00
848.64	8159.00
849.08	8112.00
849.51	8127.00
849.95	7889.00
850.39	7852.00
850.83	8055.00
851.27	7834.00
851.70	7880.00
852.14	7829.00
852.58	7689.00
853.02	7530.00
853.46	7481.00
853.89	7342.00
854.33	7441.00
854.77	7594.00
855.21	7964.00
855.65	8105.00
856.08	8214.00
856.52	8175.00
856.96	8209.00
857.40	8017.00
857.83	7892.00
858.27	7880.00
858.71	7764.00
859.15	7776.00
859.58	7779.00
860.02	7873.00
860.46	7939.00
860.89	8023.00
861.33	7956.00
861.77	8093.00
862.21	8147.00
862.64	8237.00
863.08	8115.00
863.52	8123.00
863.95	7951.00
864.39	7897.00
864.83	7709.00
865.27	7356.00
865.70	7455.00
866.14	7229.00
866.58	7333.00
867.01	7478.00
867.45	7780.00
867.89	7810.00
868.32	7926.00
868.76	8039.00
869.20	8015.00
869.63	8090.00
870.07	8059.00
870.51	7796.00
870.94	7733.00
871.38	7583.00
871.82	7477.00
872.25	7527.00
872.69	7519.00
873.13	7567.00
873.56	7647.00
874.00	7679.00
874.43	7761.00
874.87	7726.00
875.31	7877.00
875.74	7871.00
876.18	7889.00
876.61	7882.00
877.05	7939.00
877.49	7765.00
877.92	7733.00
878.36	7720.00
878.79	7552.00
879.23	7552.00
879.67	7293.00
880.10	7300.00
880.54	7354.00
880.97	7466.00
881.41	7638.00
881.84	7657.00
882.28	7817.00
882.72	7946.00
883.15	7948.00
883.59	7835.00
884.02	7949.00
884.46	7867.00
884.89	7795.00
885.33	7712.00
885.76	7532.00
886.20	7412.00
886.63	7450.00
887.07	7308.00
887.50	7345.00
887.94	7424.00
888.37	7412.00
888.81	7557.00
889.24	7475.00
889.68	7681.00
890.11	7587.00
890.55	7651.00
890.98	7698.00
891.42	7665.00
891.85	7665.00
892.29	7673.00
892.72	7396.00
893.16	7291.00
893.59	7224.00
894.03	7073.00
894.46	6931.00
894.90	6731.00
895.33	6551.00
895.77	6597.00
896.20	6558.00
896.63	6536.00
897.07	6535.00
897.50	6471.00
897.94	6580.00
898.37	6742.00
898.81	6483.00
899.24	6439.00
899.68	6661.00
900.11	6661.00
900.54	6459.00
900.98	6415.00
901.41	6457.00
901.85	6520.00
902.28	6369.00
902.71	6505.00
903.15	6695.00
903.58	6805.00
904.02	6804.00
904.45	6715.00
904.88	6811.00
905.32	6642.00
905.75	6780.00
906.18	6563.00
906.62	6624.00
907.05	6440.00
907.48	6495.00
907.92	6463.00
908.35	6567.00
908.79	6344.00
909.22	6303.00
909.65	6265.00
910.09	6303.00
910.52	6402.00
910.95	6219.00
911.38	6325.00
911.82	6087.00
912.25	6243.00
912.68	6315.00
913.12	6192.00
913.55	6273.00
913.98	6319.00
914.42	6531.00
914.85	6567.00
915.28	6356.00
915.72	6440.00
916.15	6261.00
916.58	6305.00
917.01	6123.00
917.45	6257.00
917.88	6196.00
918.31	6313.00
918.74	6431.00
919.18	6506.00
919.61	6499.00
920.04	6554.00
920.47	6649.00
920.91	6624.00
921.34	6626.00
921.77	6556.00
922.20	6730.00
922.64	6699.00
923.07	6767.00
923.50	6658.00
923.93	6431.00
924.37	6525.00
924.80	6369.00
925.23	6428.00
925.66	6369.00
926.09	6045.00
926.53	6084.00
926.96	5839.00
927.39	5811.00
927.82	5547.00
928.25	5405.00
928.69	5455.00
929.12	5347.00
929.55	5281.00
929.98	5171.00
930.41	4979.00
930.84	4839.00
931.28	4623.00
931.71	4696.00
932.14	4371.00
932.57	4415.00
933.00	4286.00
933.43	4236.00
933.86	4130.00
934.30	4065.00
934.73	4254.00
935.16	4093.00
935.59	4053.00
936.02	4167.00
936.45	4096.00
936.88	4091.00
937.31	4288.00
937.75	4311.00
938.18	4401.00
938.61	4476.00
939.04	4490.00
939.47	4471.00
939.90	4458.00
940.33	4413.00
940.76	4203.00
941.19	4226.00
941.62	4131.00
942.05	4099.00
942.48	4028.00
942.91	4003.00
943.35	4018.00
943.78	4011.00
944.21	4001.00
944.64	4062.00
945.07	4063.00
945.50	4041.00
945.93	4089.00
946.36	4240.00
946.79	4146.00
947.22	4287.00
947.65	4264.00
948.08	4118.00
948.51	4277.00
948.94	4259.00
949.37	4311.00
949.80	4199.00
950.23	4262.00
950.66	4238.00
951.09	4310.00
951.52	4167.00
951.95	4205.00
952.38	4241.00
952.81	4425.00
953.24	4403.00
953.67	4426.00
954.10	4385.00
954.53	4505.00
954.96	4446.00
955.39	4591.00
955.82	4588.00
956.25	4555.00
956.68	4693.00
957.11	4630.00
957.53	4594.00
957.96	4539.00
958.39	4496.00
958.82	4463.00
959.25	4496.00
959.68	4517.00
960.11	4605.00
960.54	4669.00
960.97	4761.00
961.40	4885.00
961.83	4834.00
962.26	4783.00
962.68	5013.00
963.11	5025.00
963.54	5032.00
963.97	5085.00
964.40	4994.00
964.83	5167.00
965.26	5156.00
965.69	5141.00
966.11	5068.00
966.54	5098.00
966.97	5245.00
967.40	5334.00
967.83	5433.00
968.26	5275.00
968.69	5293.00
969.11	5371.00
969.54	5261.00
969.97	5243.00
970.40	5401.00
970.83	5353.00
971.26	5343.00
971.68	5316.00
972.11	5341.00
972.54	5468.00
972.97	5415.00
973.40	5399.00
973.82	5351.00
974.25	5356.00
974.68	5308.00
975.11	5288.00
975.54	5246.00
975.96	5221.00
976.39	5219.00
976.82	5269.00
977.25	5248.00
977.67	5237.00
978.10	5170.00
978.53	5240.00
978.96	5377.00
979.38	5404.00
979.81	5391.00
980.24	5487.00
980.67	5569.00
981.09	5615.00
981.52	5568.00
981.95	5532.00
982.38	5602.00
982.80	5653.00
983.23	5763.00
983.66	5738.00
984.08	5629.00
984.51	5609.00
984.94	5671.00
985.37	5644.00
985.79	5511.00
986.22	5445.00
986.65	5421.00
987.07	5431.00
987.50	5421.00
987.93	5423.00
988.35	5473.00
988.78	5353.00
989.21	5465.00
989.63	5546.00
990.06	5614.00
990.49	5598.00
990.91	5703.00
991.34	5645.00
991.77	5679.00
992.19	5673.00
992.62	5610.00
993.05	5711.00
993.47	5681.00
993.90	5596.00
994.32	5557.00
994.75	5455.00
995.18	5377.00
995.60	5361.00
996.03	5355.00
996.45	5443.00
996.88	5382.00
997.31	5317.00
997.73	5321.00
998.16	5207.00
998.58	5401.00
999.01	5334.00
999.44	5413.00
999.86	5465.00
1000.29	5403.00
1000.71	5486.00
1001.14	5526.00
1001.56	5471.00
1001.99	5492.00
1002.41	5436.00
1002.84	5413.00
1003.27	5283.00
1003.69	5264.00
1004.12	5196.00
1004.54	5239.00
1004.97	5152.00
1005.39	5080.00
1005.82	5157.00
1006.24	5120.00
1006.67	5058.00
1007.09	5037.00
1007.52	5037.00
1007.94	5083.00
1008.37	5262.00
1008.79	5108.00
1009.22	5144.00
1009.64	5155.00
1010.07	5109.00
1010.49	5154.00
1010.92	5112.00
1011.34	5132.00
1011.77	5123.00
1012.19	5136.00
1012.62	5109.00
1013.04	5071.00
1013.46	5119.00
1013.89	4930.00
1014.31	4983.00
1014.74	4856.00
1015.16	4852.00
1015.59	4854.00
1016.01	4919.00
1016.44	4910.00
1016.86	5749.00
1017.28	4863.00
1017.71	4866.00
1018.13	5119.00
1018.56	5031.00
1018.98	4988.00
1019.40	4961.00
1019.83	5031.00
1020.25	5025.00
1020.68	5096.00
1021.10	5146.00
1021.52	5013.00
1021.95	5269.00
1022.37	5102.00
1022.79	5072.00
1023.22	5080.00
1023.64	5001.00
1024.07	4993.00
1024.49	5080.00
1024.91	4919.00
1025.34	4887.00
1025.76	5056.00
1026.18	4897.00
1026.61	4921.00
1027.03	4871.00
1027.45	4862.00
1027.88	4839.00
1028.30	5038.00
1028.72	4877.00
1029.15	4894.00
1029.57	4982.00
1029.99	4987.00
1030.41	4828.00
1030.84	4947.00
1031.26	4935.00
1031.68	4932.00
1032.11	4895.00
1032.53	4808.00
1032.95	4811.00
1033.37	4791.00
1033.80	4782.00
1034.22	4772.00
1034.64	4821.00
1035.06	4655.00
1035.49	4612.00
1035.91	4610.00
1036.33	4511.00
1036.75	4611.00
1037.18	4616.00
1037.60	4640.00
1038.02	4626.00
1038.44	4671.00
1038.87	4591.00
1039.29	4557.00
1039.71	4616.00
1040.13	4558.00
1040.55	4689.00
1040.98	4657.00
1041.40	4598.00
1041.82	4611.00
1042.24	4558.00
1042.66	4554.00
1043.09	4471.00
1043.51	4482.00
1043.93	4523.00
1044.35	4421.00
1044.77	4388.00
1045.20	4477.00
1045.62	4343.00
1046.04	4322.00
1046.46	4399.00
1046.88	4263.00
1047.30	4321.00
1047.72	4341.00
1048.15	4329.00
1048.57	4277.00
1048.99	4297.00
1049.41	4309.00
1049.83	4327.00
1050.25	4371.00
1050.67	4320.00
1051.09	4266.00
1051.52	4236.00
1051.94	4153.00
1052.36	4199.00
1052.78	4197.00
1053.20	4211.00
1053.62	4171.00
1054.04	4232.00
1054.46	4167.00
1054.88	4221.00
1055.30	4197.00
1055.72	4154.00
1056.14	4133.00
1056.57	4290.00
1056.99	4057.00
1057.41	4115.00
1057.83	4079.00
1058.25	4047.00
1058.67	3999.00
1059.09	4042.00
1059.51	4053.00
1059.93	4015.00
1060.35	3985.00
1060.77	4021.00
1061.19	4055.00
1061.61	3949.00
1062.03	3975.00
1062.45	3983.00
1062.87	4010.00
1063.29	4039.00
1063.71	3970.00
1064.13	3908.00
1064.55	3834.00
1064.97	4003.00
1065.39	3958.00
1065.81	3903.00
1066.23	3893.00
1066.65	3895.00
1067.07	3969.00
1067.49	3903.00
1067.91	3827.00
1068.33	3803.00
1068.75	3881.00
1069.17	3924.00
1069.59	3869.00
1070.00	3844.00
1070.42	3841.00
1070.84	3768.00
1071.26	3720.00
1071.68	3758.00
1072.10	3827.00
1072.52	3809.00
1072.94	3715.00
1073.36	3740.00
1073.78	3801.00
1074.20	3751.00
1074.62	3768.00
1075.03	3781.00
1075.45	3764.00
1075.87	3844.00
1076.29	3721.00
1076.71	3785.00
1077.13	3853.00
1077.55	3673.00
1077.97	3759.00
1078.38	3695.00
1078.80	3749.00
1079.22	3717.00
1079.64	3692.00
1080.06	3680.00
1080.48	3657.00
1080.89	3659.00
1081.31	3691.00
1081.73	3639.00
1082.15	3667.00
1082.57	3655.00
1082.99	3647.00
1083.40	3646.00
1083.82	3681.00
1084.24	3605.00
1084.66	3614.00
1085.08	3645.00
1085.49	3583.00
1085.91	3627.00
1086.33	4906.00
1086.75	3623.00
1087.17	3583.00
1087.58	3612.00
1088.00	3601.00
1088.42	3580.00
1088.84	3582.00
1089.25	3562.00
1089.67	3601.00
1090.09	3599.00
1090.51	3555.00
1090.92	3591.00
1091.34	3503.00
1091.76	3542.00
1092.18	3506.00
1092.59	3514.00
1093.01	3528.00
1093.43	3506.00
1093.84	3503.00
1094.26	3517.00
1094.68	3551.00
1095.10	3455.00
1095.51	3513.00
1095.93	3469.00
1096.35	3497.00
1096.76	3514.00
1097.18	3511.00
1097.60	3455.00
1098.01	3453.00
1098.43	3425.00
1098.85	3456.00
1099.26	3443.00
1099.68	3467.00
1100.10	3421.00
1100.51	3389.00
1100.93	3400.00
1101.35	3416.00
1101.76	3442.00
1102.18	3888.00
1102.60	3484.00
1103.01	3316.00
1103.43	3394.00
1103.84	3377.00
1104.26	3365.00
1104.68	3342.00
1105.09	3337.00
1105.51	3329.00
1105.92	3400.00
1106.34	3320.00
1106.76	3356.00
1107.17	3397.00
1107.59	3375.00
1108.00	3259.00
1108.42	3350.00
1108.83	3317.00
1109.25	3310.00
1109.67	3237.00
1110.08	3314.00
1110.50	3259.00
1110.91	3297.00
1111.33	3282.00
1111.74	3259.00
1112.16	3345.00
1112.57	3338.00
1112.99	3288.00
1113.41	3303.00
1113.82	3279.00
1114.24	3319.00
1114.65	3222.00
1115.07	3177.00
1115.48	3087.00
1115.90	2185.00
1116.31	2210.00
1116.73	2209.00
1117.14	2211.00
>>>>>End Processed Spectral Data<<<<<
