SpectraSuite Data File
++++++++++++++++++++++++++++++++++++
Date: Tue May 29 12:59:35 EEST 2018
User: CanSEE
Dark Spectrum Present: No
Reference Spectrum Present: No
Number of Sampled Component Spectra: 1
Spectrometers: MAYP11278
Integration Time (usec): 250000 (MAYP11278)
Spectra Averaged: 1 (MAYP11278)
Boxcar Smoothing: 0 (MAYP11278)
Correct for Electrical Dark: No (MAYP11278)
Strobe/Lamp Enabled: No (MAYP11278)
Correct for Detector Non-linearity: No (MAYP11278)
Correct for Stray Light: No (MAYP11278)
Number of Pixels in Processed Spectrum: 2068
>>>>>Begin Processed Spectral Data<<<<<
187.82	2319.00
188.30	2221.00
188.78	2198.00
189.26	2202.00
189.73	2952.00
190.21	3083.00
190.69	3170.00
191.17	3154.00
191.64	3211.00
192.12	3139.00
192.60	3118.00
193.07	3122.00
193.55	3120.00
194.03	3162.00
194.51	3148.00
194.98	3140.00
195.46	3164.00
195.94	3131.00
196.42	3158.00
196.89	3261.00
197.37	3146.00
197.85	3142.00
198.32	3132.00
198.80	3094.00
199.28	3202.00
199.76	3186.00
200.23	3162.00
200.71	3121.00
201.19	3183.00
201.66	3158.00
202.14	3178.00
202.62	3137.00
203.09	3184.00
203.57	3146.00
204.05	3178.00
204.53	3233.00
205.00	3124.00
205.48	3142.00
205.96	3235.00
206.43	3164.00
206.91	3169.00
207.39	3226.00
207.86	3171.00
208.34	3157.00
208.82	3176.00
209.29	3190.00
209.77	3172.00
210.25	3168.00
210.72	3164.00
211.20	3167.00
211.68	3172.00
212.15	3157.00
212.63	3224.00
213.11	3179.00
213.58	3177.00
214.06	3233.00
214.53	3176.00
215.01	3226.00
215.49	3206.00
215.96	3169.00
216.44	3186.00
216.92	3184.00
217.39	3168.00
217.87	3154.00
218.35	3214.00
218.82	3120.00
219.30	3155.00
219.77	3169.00
220.25	3136.00
220.73	3213.00
221.20	3142.00
221.68	3221.00
222.15	3165.00
222.63	3194.00
223.11	3127.00
223.58	3202.00
224.06	3175.00
224.53	3141.00
225.01	3172.00
225.49	3167.00
225.96	3102.00
226.44	3174.00
226.91	3225.00
227.39	3136.00
227.87	3197.00
228.34	3218.00
228.82	3190.00
229.29	3180.00
229.77	3171.00
230.24	3155.00
230.72	3204.00
231.20	3220.00
231.67	3177.00
232.15	3166.00
232.62	3154.00
233.10	3165.00
233.57	3182.00
234.05	3267.00
234.53	3190.00
235.00	3167.00
235.48	3152.00
235.95	3207.00
236.43	3202.00
236.90	3286.00
237.38	3139.00
237.85	3210.00
238.33	3173.00
238.80	3185.00
239.28	3170.00
239.75	3157.00
240.23	3240.00
240.71	3221.00
241.18	3163.00
241.66	3187.00
242.13	3201.00
242.61	3221.00
243.08	3127.00
243.56	3151.00
244.03	3181.00
244.51	3232.00
244.98	3139.00
245.46	3228.00
245.93	4629.00
246.41	3102.00
246.88	3194.00
247.36	3212.00
247.83	3172.00
248.31	3201.00
248.78	3122.00
249.26	3171.00
249.73	3223.00
250.21	3198.00
250.68	3246.00
251.16	3203.00
251.63	3293.00
252.10	3256.00
252.58	3171.00
253.05	3237.00
253.53	3173.00
254.00	3158.00
254.48	3172.00
254.95	3224.00
255.43	3217.00
255.90	3187.00
256.38	3239.00
256.85	3193.00
257.33	3216.00
257.80	3328.00
258.27	3192.00
258.75	3149.00
259.22	3166.00
259.70	3190.00
260.17	3258.00
260.65	3181.00
261.12	3186.00
261.59	3259.00
262.07	3187.00
262.54	3228.00
263.02	3203.00
263.49	3148.00
263.97	3210.00
264.44	3253.00
264.91	3188.00
265.39	3209.00
265.86	3230.00
266.34	3232.00
266.81	3210.00
267.28	3179.00
267.76	3168.00
268.23	3216.00
268.71	3147.00
269.18	3126.00
269.65	3157.00
270.13	3179.00
270.60	3201.00
271.08	3165.00
271.55	3193.00
272.02	3154.00
272.50	3181.00
272.97	3132.00
273.44	3159.00
273.92	3298.00
274.39	3200.00
274.87	3207.00
275.34	3165.00
275.81	3159.00
276.29	3177.00
276.76	3201.00
277.23	3095.00
277.71	3132.00
278.18	3065.00
278.65	3227.00
279.13	3102.00
279.60	3160.00
280.07	3412.00
280.55	3394.00
281.02	3438.00
281.50	3249.00
281.97	3319.00
282.44	3220.00
282.91	3213.00
283.39	3245.00
283.86	3179.00
284.33	3154.00
284.81	3237.00
285.28	3197.00
285.75	3232.00
286.23	3213.00
286.70	3162.00
287.17	3209.00
287.65	3262.00
288.12	3163.00
288.59	3199.00
289.07	3106.00
289.54	3240.00
290.01	3147.00
290.48	3188.00
290.96	3146.00
291.43	3207.00
291.90	3281.00
292.38	3171.00
292.85	3221.00
293.32	3186.00
293.79	3218.00
294.27	3247.00
294.74	3204.00
295.21	3211.00
295.69	3209.00
296.16	3264.00
296.63	3233.00
297.10	3229.00
297.58	3229.00
298.05	3219.00
298.52	3221.00
298.99	3269.00
299.47	3179.00
299.94	3219.00
300.41	3174.00
300.88	3217.00
301.36	3248.00
301.83	3238.00
302.30	3176.00
302.77	3239.00
303.25	3276.00
303.72	3190.00
304.19	3176.00
304.66	3161.00
305.13	3199.00
305.61	3205.00
306.08	3196.00
306.55	3259.00
307.02	3165.00
307.49	3196.00
307.97	3201.00
308.44	3173.00
308.91	3214.00
309.38	3246.00
309.86	3208.00
310.33	3213.00
310.80	3224.00
311.27	3208.00
311.74	3235.00
312.21	3200.00
312.69	3294.00
313.16	3202.00
313.63	3212.00
314.10	3239.00
314.57	3179.00
315.05	3195.00
315.52	3243.00
315.99	3230.00
316.46	3246.00
316.93	3255.00
317.40	3227.00
317.88	3335.00
318.35	3237.00
318.82	3219.00
319.29	3174.00
319.76	3244.00
320.23	3301.00
320.70	3256.00
321.18	3215.00
321.65	3208.00
322.12	3183.00
322.59	3306.00
323.06	3225.00
323.53	3338.00
324.00	3207.00
324.48	3267.00
324.95	3209.00
325.42	3219.00
325.89	3218.00
326.36	3218.00
326.83	3267.00
327.30	3239.00
327.77	3237.00
328.24	3237.00
328.72	3242.00
329.19	3243.00
329.66	3213.00
330.13	3251.00
330.60	3299.00
331.07	3261.00
331.54	3330.00
332.01	3201.00
332.48	3320.00
332.95	3246.00
333.43	3257.00
333.90	3273.00
334.37	3215.00
334.84	3210.00
335.31	3420.00
335.78	3181.00
336.25	3272.00
336.72	3235.00
337.19	3256.00
337.66	3193.00
338.13	3234.00
338.60	3308.00
339.07	3290.00
339.54	3204.00
340.01	3234.00
340.49	3201.00
340.96	3238.00
341.43	3291.00
341.90	3211.00
342.37	3215.00
342.84	3264.00
343.31	3253.00
343.78	3186.00
344.25	3246.00
344.72	3210.00
345.19	3236.00
345.66	3231.00
346.13	3233.00
346.60	3205.00
347.07	3297.00
347.54	3218.00
348.01	3256.00
348.48	3259.00
348.95	3151.00
349.42	3243.00
349.89	3269.00
350.36	3229.00
350.83	3203.00
351.30	3231.00
351.77	3282.00
352.24	3242.00
352.71	3229.00
353.18	3241.00
353.65	3241.00
354.12	3235.00
354.59	3262.00
355.06	3238.00
355.53	3266.00
356.00	3213.00
356.47	3366.00
356.94	3227.00
357.41	3381.00
357.88	3243.00
358.35	3207.00
358.82	3224.00
359.28	3211.00
359.75	3220.00
360.22	3276.00
360.69	3280.00
361.16	3245.00
361.63	3191.00
362.10	3276.00
362.57	3196.00
363.04	3257.00
363.51	3334.00
363.98	3266.00
364.45	3213.00
364.92	3248.00
365.39	3211.00
365.86	3203.00
366.32	3230.00
366.79	3243.00
367.26	3846.00
367.73	3267.00
368.20	3226.00
368.67	3266.00
369.14	3149.00
369.61	3296.00
370.08	3255.00
370.55	3220.00
371.02	3751.00
371.48	3240.00
371.95	3187.00
372.42	3185.00
372.89	3258.00
373.36	3233.00
373.83	3171.00
374.30	3194.00
374.77	3227.00
375.23	3168.00
375.70	3279.00
376.17	3229.00
376.64	3189.00
377.11	3197.00
377.58	3215.00
378.05	3261.00
378.51	3224.00
378.98	3217.00
379.45	3215.00
379.92	3234.00
380.39	3349.00
380.86	3247.00
381.33	3297.00
381.79	3259.00
382.26	3211.00
382.73	3277.00
383.20	3253.00
383.67	3267.00
384.14	3256.00
384.60	3440.00
385.07	3221.00
385.54	3256.00
386.01	3194.00
386.48	3310.00
386.94	3192.00
387.41	3220.00
387.88	3294.00
388.35	3241.00
388.82	3260.00
389.28	3253.00
389.75	3277.00
390.22	3249.00
390.69	3274.00
391.16	3240.00
391.62	3222.00
392.09	3261.00
392.56	3226.00
393.03	3248.00
393.50	3349.00
393.96	3231.00
394.43	3258.00
394.90	3239.00
395.37	3263.00
395.83	3420.00
396.30	3200.00
396.77	3281.00
397.24	3293.00
397.70	3235.00
398.17	3259.00
398.64	3265.00
399.11	3249.00
399.57	3327.00
400.04	3221.00
400.51	3274.00
400.98	3259.00
401.44	3296.00
401.91	3284.00
402.38	3260.00
402.84	3249.00
403.31	3337.00
403.78	3284.00
404.25	3349.00
404.71	3327.00
405.18	3325.00
405.65	3237.00
406.12	3319.00
406.58	3321.00
407.05	3343.00
407.52	3297.00
407.98	3956.00
408.45	3312.00
408.92	3273.00
409.38	3336.00
409.85	3241.00
410.32	3326.00
410.78	3259.00
411.25	3314.00
411.72	3275.00
412.18	3259.00
412.65	3294.00
413.12	3265.00
413.59	3310.00
414.05	3316.00
414.52	3347.00
414.98	3305.00
415.45	3368.00
415.92	3310.00
416.38	3284.00
416.85	3379.00
417.32	3308.00
417.78	3276.00
418.25	3290.00
418.72	3274.00
419.18	3331.00
419.65	3260.00
420.12	3361.00
420.58	3261.00
421.05	3289.00
421.51	3272.00
421.98	3287.00
422.45	3280.00
422.91	3320.00
423.38	3302.00
423.85	3303.00
424.31	3292.00
424.78	3358.00
425.24	3306.00
425.71	3336.00
426.18	3288.00
426.64	3320.00
427.11	3306.00
427.57	3309.00
428.04	3262.00
428.51	3345.00
428.97	3294.00
429.44	3305.00
429.90	3295.00
430.37	3379.00
430.83	3271.00
431.30	3292.00
431.77	3345.00
432.23	3364.00
432.70	3315.00
433.16	3251.00
433.63	3299.00
434.09	3298.00
434.56	3368.00
435.03	3234.00
435.49	3326.00
435.96	3295.00
436.42	3265.00
436.89	3330.00
437.35	3358.00
437.82	3306.00
438.28	3298.00
438.75	3309.00
439.21	3479.00
439.68	3332.00
440.14	3351.00
440.61	3361.00
441.07	3301.00
441.54	3304.00
442.00	3442.00
442.47	3287.00
442.94	3330.00
443.40	3267.00
443.87	3271.00
444.33	3399.00
444.80	3346.00
445.26	3332.00
445.73	3303.00
446.19	3339.00
446.65	3331.00
447.12	3356.00
447.58	3325.00
448.05	3317.00
448.51	3377.00
448.98	3374.00
449.44	3319.00
449.91	3292.00
450.37	3285.00
450.84	3356.00
451.30	3315.00
451.77	3382.00
452.23	3319.00
452.70	3395.00
453.16	3361.00
453.62	3339.00
454.09	3339.00
454.55	3339.00
455.02	3327.00
455.48	3363.00
455.95	3385.00
456.41	3305.00
456.88	3392.00
457.34	3322.00
457.80	3333.00
458.27	3282.00
458.73	3304.00
459.20	3359.00
459.66	3306.00
460.13	3301.00
460.59	3255.00
461.05	3324.00
461.52	3308.00
461.98	3297.00
462.45	3251.00
462.91	3320.00
463.37	3278.00
463.84	3246.00
464.30	3300.00
464.76	3244.00
465.23	3257.00
465.69	3314.00
466.16	3264.00
466.62	3281.00
467.08	3249.00
467.55	3256.00
468.01	3256.00
468.48	3254.00
468.94	3259.00
469.40	3187.00
469.87	3231.00
470.33	3231.00
470.79	3234.00
471.26	3203.00
471.72	3195.00
472.18	3194.00
472.65	3196.00
473.11	3259.00
473.57	3164.00
474.04	3192.00
474.50	3167.00
474.96	3130.00
475.43	3248.00
475.89	3178.00
476.35	3218.00
476.82	3218.00
477.28	3206.00
477.74	3267.00
478.21	3193.00
478.67	3237.00
479.13	3167.00
479.59	3301.00
480.06	3235.00
480.52	3220.00
480.98	3162.00
481.45	3206.00
481.91	3218.00
482.37	3166.00
482.84	3179.00
483.30	3178.00
483.76	3178.00
484.22	3209.00
484.69	3195.00
485.15	3169.00
485.61	3120.00
486.07	3162.00
486.54	3080.00
487.00	3166.00
487.46	3128.00
487.92	3166.00
488.39	3163.00
488.85	3180.00
489.31	3172.00
489.77	3254.00
490.24	3152.00
490.70	3205.00
491.16	3124.00
491.62	3180.00
492.09	3126.00
492.55	3218.00
493.01	3218.00
493.47	3171.00
493.94	3192.00
494.40	3196.00
494.86	3209.00
495.32	3165.00
495.78	3214.00
496.25	3221.00
496.71	3222.00
497.17	3332.00
497.63	3265.00
498.09	3205.00
498.56	3254.00
499.02	3242.00
499.48	3348.00
499.94	3288.00
500.40	3273.00
500.87	3288.00
501.33	3247.00
501.79	3323.00
502.25	3287.00
502.71	3562.00
503.17	3310.00
503.64	3343.00
504.10	3338.00
504.56	3406.00
505.02	3394.00
505.48	3337.00
505.94	3401.00
506.40	3468.00
506.87	3505.00
507.33	3433.00
507.79	3488.00
508.25	3483.00
508.71	3513.00
509.17	3479.00
509.63	3501.00
510.10	3603.00
510.56	3592.00
511.02	3659.00
511.48	3685.00
511.94	3626.00
512.40	3626.00
512.86	3728.00
513.32	3748.00
513.78	3663.00
514.25	3809.00
514.71	4351.00
515.17	3815.00
515.63	3849.00
516.09	3913.00
516.55	3853.00
517.01	3902.00
517.47	3912.00
517.93	3969.00
518.39	4104.00
518.85	4019.00
519.32	4100.00
519.78	4147.00
520.24	4153.00
520.70	4239.00
521.16	4334.00
521.62	4344.00
522.08	4371.00
522.54	4423.00
523.00	4488.00
523.46	4553.00
523.92	4559.00
524.38	4693.00
524.84	4600.00
525.30	4655.00
525.76	4710.00
526.22	4599.00
526.68	4527.00
527.14	4632.00
527.60	4772.00
528.06	4803.00
528.52	4947.00
528.98	4906.00
529.44	4932.00
529.90	4913.00
530.36	5048.00
530.82	5022.00
531.28	5137.00
531.74	5055.00
532.20	5057.00
532.66	4979.00
533.12	5116.00
533.58	5049.00
534.04	5107.00
534.50	5192.00
534.96	5144.00
535.42	5251.00
535.88	5228.00
536.34	5174.00
536.80	5145.00
537.26	5186.00
537.72	5222.00
538.18	5281.00
538.64	5310.00
539.10	5206.00
539.56	5338.00
540.02	5188.00
540.48	5143.00
540.94	5212.00
541.40	5219.00
541.86	5277.00
542.32	5244.00
542.78	5207.00
543.24	5343.00
543.69	5243.00
544.15	5376.00
544.61	5328.00
545.07	5289.00
545.53	5293.00
545.99	5299.00
546.45	5316.00
546.91	5398.00
547.37	5309.00
547.83	5305.00
548.29	5376.00
548.74	5360.00
549.20	5375.00
549.66	5424.00
550.12	5336.00
550.58	5359.00
551.04	5358.00
551.50	5356.00
551.96	5518.00
552.42	5390.00
552.87	5277.00
553.33	5422.00
553.79	5381.00
554.25	5357.00
554.71	5416.00
555.17	5446.00
555.63	5406.00
556.08	5356.00
556.54	5336.00
557.00	5237.00
557.46	5287.00
557.92	5400.00
558.38	5194.00
558.83	5119.00
559.29	5134.00
559.75	5145.00
560.21	5150.00
560.67	5202.00
561.13	5204.00
561.58	5142.00
562.04	5078.00
562.50	5083.00
562.96	5111.00
563.42	5150.00
563.87	5024.00
564.33	5065.00
564.79	5012.00
565.25	4976.00
565.71	4902.00
566.16	4971.00
566.62	4899.00
567.08	4956.00
567.54	4906.00
568.00	4915.00
568.45	4774.00
568.91	4752.00
569.37	4774.00
569.83	4749.00
570.28	4671.00
570.74	4633.00
571.20	4632.00
571.66	4645.00
572.11	4656.00
572.57	4623.00
573.03	4550.00
573.49	4556.00
573.94	4527.00
574.40	4573.00
574.86	4570.00
575.32	4444.00
575.77	4444.00
576.23	4419.00
576.69	4494.00
577.15	4426.00
577.60	4429.00
578.06	4299.00
578.52	4390.00
578.97	4327.00
579.43	4309.00
579.89	4315.00
580.34	4356.00
580.80	4278.00
581.26	4262.00
581.72	4294.00
582.17	4270.00
582.63	4296.00
583.09	4285.00
583.54	4278.00
584.00	4298.00
584.46	4237.00
584.91	4186.00
585.37	4315.00
585.83	4164.00
586.28	4170.00
586.74	4176.00
587.20	4112.00
587.65	4199.00
588.11	4075.00
588.57	4082.00
589.02	3992.00
589.48	3985.00
589.94	4043.00
590.39	4085.00
590.85	3994.00
591.30	4042.00
591.76	4098.00
592.22	4041.00
592.67	4070.00
593.13	4052.00
593.59	4091.00
594.04	4066.00
594.50	4038.00
594.95	4012.00
595.41	4013.00
595.87	3989.00
596.32	4095.00
596.78	4042.00
597.23	4056.00
597.69	4029.00
598.15	3966.00
598.60	3988.00
599.06	4072.00
599.51	3957.00
599.97	4046.00
600.43	4029.00
600.88	3992.00
601.34	3973.00
601.79	3963.00
602.25	4066.00
602.70	3952.00
603.16	3967.00
603.61	3938.00
604.07	3922.00
604.53	3985.00
604.98	3940.00
605.44	3931.00
605.89	3919.00
606.35	3901.00
606.80	3957.00
607.26	3933.00
607.71	3929.00
608.17	3902.00
608.62	3874.00
609.08	3969.00
609.53	3939.00
609.99	3812.00
610.44	3811.00
610.90	3834.00
611.35	3788.00
611.81	3873.00
612.26	3810.00
612.72	3807.00
613.17	3912.00
613.63	3714.00
614.08	3713.00
614.54	3747.00
614.99	3705.00
615.45	3747.00
615.90	3691.00
616.36	3671.00
616.81	3726.00
617.27	3703.00
617.72	3755.00
618.18	3691.00
618.63	3705.00
619.09	3724.00
619.54	3707.00
619.99	3698.00
620.45	3748.00
620.90	3725.00
621.36	3618.00
621.81	3706.00
622.27	3708.00
622.72	3703.00
623.18	3609.00
623.63	3606.00
624.08	3670.00
624.54	3629.00
624.99	3581.00
625.45	3659.00
625.90	3573.00
626.35	3658.00
626.81	3636.00
627.26	3618.00
627.72	3635.00
628.17	3621.00
628.62	3538.00
629.08	3584.00
629.53	3633.00
629.99	3544.00
630.44	3606.00
630.89	3599.00
631.35	3565.00
631.80	3619.00
632.26	3615.00
632.71	3604.00
633.16	3601.00
633.62	3558.00
634.07	3586.00
634.52	3529.00
634.98	3528.00
635.43	3561.00
635.88	3506.00
636.34	3577.00
636.79	3556.00
637.24	3538.00
637.70	3577.00
638.15	3582.00
638.60	3530.00
639.06	3539.00
639.51	3474.00
639.96	3462.00
640.42	3489.00
640.87	3523.00
641.32	3412.00
641.78	3442.00
642.23	3461.00
642.68	3423.00
643.14	3414.00
643.59	3419.00
644.04	3402.00
644.49	3372.00
644.95	3380.00
645.40	3376.00
645.85	3366.00
646.31	3387.00
646.76	3332.00
647.21	3331.00
647.66	3348.00
648.12	3341.00
648.57	3265.00
649.02	3342.00
649.47	3303.00
649.93	3483.00
650.38	3259.00
650.83	3286.00
651.28	3260.00
651.74	3278.00
652.19	3237.00
652.64	3299.00
653.09	3243.00
653.55	3211.00
654.00	3260.00
654.45	3273.00
654.90	3250.00
655.35	3182.00
655.81	3264.00
656.26	3196.00
656.71	3195.00
657.16	3280.00
657.62	3253.00
658.07	3228.00
658.52	3233.00
658.97	3190.00
659.42	3382.00
659.88	3212.00
660.33	3309.00
660.78	3203.00
661.23	3151.00
661.68	3199.00
662.13	3151.00
662.59	3167.00
663.04	3201.00
663.49	3135.00
663.94	3145.00
664.39	3152.00
664.84	3129.00
665.30	3167.00
665.75	3110.00
666.20	3122.00
666.65	3157.00
667.10	3245.00
667.55	3200.00
668.00	3075.00
668.46	3120.00
668.91	3090.00
669.36	3213.00
669.81	3031.00
670.26	3110.00
670.71	3155.00
671.16	3113.00
671.61	3149.00
672.06	3204.00
672.52	3103.00
672.97	3114.00
673.42	3136.00
673.87	3252.00
674.32	3122.00
674.77	3110.00
675.22	3074.00
675.67	3066.00
676.12	3090.00
676.57	3102.00
677.02	3109.00
677.47	3101.00
677.93	3209.00
678.38	3057.00
678.83	3087.00
679.28	3115.00
679.73	3099.00
680.18	3113.00
680.63	3126.00
681.08	3066.00
681.53	3073.00
681.98	3093.00
682.43	3103.00
682.88	3150.00
683.33	3155.00
683.78	3156.00
684.23	3188.00
684.68	3160.00
685.13	3161.00
685.58	3194.00
686.03	3185.00
686.48	3144.00
686.93	3167.00
687.38	3168.00
687.83	3191.00
688.28	3210.00
688.73	3353.00
689.18	3286.00
689.63	3230.00
690.08	3270.00
690.53	3348.00
690.98	3337.00
691.43	3367.00
691.88	3449.00
692.33	3464.00
692.78	3529.00
693.23	3621.00
693.68	3671.00
694.13	3696.00
694.58	3760.00
695.03	3990.00
695.48	3847.00
695.93	3923.00
696.38	4082.00
696.83	4123.00
697.28	4134.00
697.72	4248.00
698.17	4253.00
698.62	4411.00
699.07	4460.00
699.52	4471.00
699.97	4616.00
700.42	4728.00
700.87	4797.00
701.32	5004.00
701.77	4878.00
702.22	5052.00
702.67	4992.00
703.11	5237.00
703.56	5368.00
704.01	5401.00
704.46	5565.00
704.91	5654.00
705.36	5719.00
705.81	5759.00
706.26	5759.00
706.70	5998.00
707.15	6052.00
707.60	6087.00
708.05	6270.00
708.50	6385.00
708.95	6433.00
709.40	6466.00
709.84	6606.00
710.29	6659.00
710.74	6708.00
711.19	6844.00
711.64	6988.00
712.09	7062.00
712.53	7132.00
712.98	7236.00
713.43	7244.00
713.88	7314.00
714.33	7543.00
714.78	7485.00
715.22	7427.00
715.67	7513.00
716.12	7558.00
716.57	7464.00
717.02	7137.00
717.46	7107.00
717.91	7146.00
718.36	6982.00
718.81	6974.00
719.26	6990.00
719.70	7199.00
720.15	7289.00
720.60	7457.00
721.05	7988.00
721.49	8313.00
721.94	8483.00
722.39	8504.00
722.84	8393.00
723.28	8148.00
723.73	8194.00
724.18	8067.00
724.63	8369.00
725.07	8252.00
725.52	8479.00
725.97	8577.00
726.42	8716.00
726.86	8858.00
727.31	8674.00
727.76	8794.00
728.21	9021.00
728.65	9060.00
729.10	9086.00
729.55	9341.00
729.99	9354.00
730.44	9440.00
730.89	9520.00
731.33	9856.00
731.78	9969.00
732.23	10222.00
732.68	10331.00
733.12	10470.00
733.57	10773.00
734.02	10877.00
734.46	11102.00
734.91	11077.00
735.36	11120.00
735.80	11331.00
736.25	11143.00
736.70	11382.00
737.14	11533.00
737.59	11638.00
738.04	11593.00
738.48	11596.00
738.93	11693.00
739.37	11724.00
739.82	11960.00
740.27	12050.00
740.71	12042.00
741.16	12000.00
741.61	12094.00
742.05	12073.00
742.50	12273.00
742.94	12301.00
743.39	12415.00
743.84	12495.00
744.28	12384.00
744.73	12440.00
745.18	12569.00
745.62	12633.00
746.07	12712.00
746.51	12635.00
746.96	12703.00
747.40	12655.00
747.85	12660.00
748.30	12723.00
748.74	12679.00
749.19	12628.00
749.63	12792.00
750.08	12595.00
750.52	12843.00
750.97	12641.00
751.42	12733.00
751.86	12634.00
752.31	12673.00
752.75	12663.00
753.20	12816.00
753.64	12764.00
754.09	12723.00
754.53	12772.00
754.98	12721.00
755.42	12676.00
755.87	12728.00
756.31	12705.00
756.76	12564.00
757.20	12584.00
757.65	12432.00
758.09	12324.00
758.54	12038.00
758.98	11088.00
759.43	9210.00
759.87	7200.00
760.32	5840.00
760.76	5674.00
761.21	6355.00
761.65	7510.00
762.10	7911.00
762.54	7558.00
762.99	7267.00
763.43	7343.00
763.88	7666.00
764.32	8071.00
764.77	8663.00
765.21	9158.00
765.66	9792.00
766.10	10108.00
766.54	10619.00
766.99	11072.00
767.43	11299.00
767.88	11664.00
768.32	11971.00
768.77	12022.00
769.21	12350.00
769.66	12258.00
770.10	12502.00
770.54	12470.00
770.99	12406.00
771.43	12526.00
771.88	12446.00
772.32	12427.00
772.76	12351.00
773.21	12438.00
773.65	12464.00
774.10	12298.00
774.54	12406.00
774.98	12418.00
775.43	12575.00
775.87	12621.00
776.31	12650.00
776.76	12623.00
777.20	12453.00
777.65	12413.00
778.09	12475.00
778.53	12360.00
778.98	12391.00
779.42	12263.00
779.86	12421.00
780.31	12313.00
780.75	12467.00
781.19	12355.00
781.64	12459.00
782.08	12488.00
782.52	12392.00
782.97	12248.00
783.41	12162.00
783.85	12227.00
784.30	12076.00
784.74	11975.00
785.18	12092.00
785.63	12083.00
786.07	12144.00
786.51	12217.00
786.95	12224.00
787.40	12039.00
787.84	11910.00
788.28	11907.00
788.73	11944.00
789.17	11739.00
789.61	11618.00
790.05	11568.00
790.50	11383.00
790.94	11538.00
791.38	11491.00
791.82	11495.00
792.27	11555.00
792.71	11481.00
793.15	11768.00
793.59	11604.00
794.04	11510.00
794.48	11386.00
794.92	11386.00
795.36	11281.00
795.81	11168.00
796.25	11194.00
796.69	11230.00
797.13	11411.00
797.57	11439.00
798.02	11491.00
798.46	11547.00
798.90	11572.00
799.34	11393.00
799.79	11320.00
800.23	11106.00
800.67	10911.00
801.11	10995.00
801.55	10978.00
801.99	10912.00
802.44	10999.00
802.88	11117.00
803.32	11136.00
803.76	11116.00
804.20	11112.00
804.64	11078.00
805.09	11143.00
805.53	11084.00
805.97	11094.00
806.41	11037.00
806.85	11021.00
807.29	10775.00
807.74	10816.00
808.18	10724.00
808.62	10794.00
809.06	10593.00
809.50	10685.00
809.94	10776.00
810.38	10839.00
810.82	10823.00
811.27	10723.00
811.71	10482.00
812.15	10373.00
812.59	10064.00
813.03	10004.00
813.47	9650.00
813.91	9469.00
814.35	9406.00
814.79	9347.00
815.23	9196.00
815.67	9118.00
816.12	9186.00
816.56	9049.00
817.00	9133.00
817.44	9190.00
817.88	9244.00
818.32	9049.00
818.76	9201.00
819.20	9105.00
819.64	9213.00
820.08	9255.00
820.52	9452.00
820.96	9686.00
821.40	9573.00
821.84	9374.00
822.28	8838.00
822.72	8767.00
823.16	8774.00
823.60	9109.00
824.04	9608.00
824.48	9617.00
824.92	9829.00
825.36	9707.00
825.80	9537.00
826.24	9564.00
826.68	9405.00
827.12	9460.00
827.56	9400.00
828.00	9312.00
828.44	9364.00
828.88	9555.00
829.32	9608.00
829.76	9560.00
830.20	9690.00
830.64	9498.00
831.08	9638.00
831.52	9416.00
831.96	9412.00
832.40	9240.00
832.84	9330.00
833.28	9384.00
833.72	9546.00
834.16	9660.00
834.60	9849.00
835.04	9961.00
835.48	10049.00
835.91	10033.00
836.35	9888.00
836.79	9818.00
837.23	9834.00
837.67	9720.00
838.11	9702.00
838.55	9751.00
838.99	9766.00
839.43	9912.00
839.87	10006.00
840.30	9986.00
840.74	10265.00
841.18	10160.00
841.62	10213.00
842.06	10270.00
842.50	10118.00
842.94	10066.00
843.38	9979.00
843.81	9917.00
844.25	9734.00
844.69	9653.00
845.13	9632.00
845.57	9741.00
846.01	9821.00
846.45	9902.00
846.88	9865.00
847.32	10055.00
847.76	10194.00
848.20	10217.00
848.64	9990.00
849.08	9945.00
849.51	9893.00
849.95	9770.00
850.39	9624.00
850.83	9764.00
851.27	9692.00
851.70	9595.00
852.14	9595.00
852.58	9469.00
853.02	9241.00
853.46	8969.00
853.89	8980.00
854.33	9103.00
854.77	9325.00
855.21	9691.00
855.65	10024.00
856.08	10063.00
856.52	10051.00
856.96	10004.00
857.40	9854.00
857.83	9642.00
858.27	9629.00
858.71	9397.00
859.15	9469.00
859.58	9497.00
860.02	9549.00
860.46	9616.00
860.89	9775.00
861.33	9920.00
861.77	9973.00
862.21	10010.00
862.64	10045.00
863.08	9987.00
863.52	9990.00
863.95	9805.00
864.39	9736.00
864.83	9383.00
865.27	9062.00
865.70	8986.00
866.14	8893.00
866.58	8839.00
867.01	9165.00
867.45	9470.00
867.89	9554.00
868.32	9750.00
868.76	9962.00
869.20	9955.00
869.63	9903.00
870.07	9842.00
870.51	9551.00
870.94	9479.00
871.38	9265.00
871.82	9165.00
872.25	9114.00
872.69	9199.00
873.13	9230.00
873.56	9335.00
874.00	9411.00
874.43	9491.00
874.87	9532.00
875.31	9742.00
875.74	9546.00
876.18	9739.00
876.61	9720.00
877.05	9694.00
877.49	9458.00
877.92	9345.00
878.36	9297.00
878.79	9230.00
879.23	9119.00
879.67	8832.00
880.10	8906.00
880.54	8960.00
880.97	8972.00
881.41	9294.00
881.84	9366.00
882.28	9563.00
882.72	9729.00
883.15	9712.00
883.59	9673.00
884.02	9668.00
884.46	9597.00
884.89	9499.00
885.33	9301.00
885.76	9021.00
886.20	8983.00
886.63	8942.00
887.07	8774.00
887.50	8709.00
887.94	8977.00
888.37	8948.00
888.81	9152.00
889.24	9177.00
889.68	9307.00
890.11	9284.00
890.55	9337.00
890.98	9508.00
891.42	9450.00
891.85	9376.00
892.29	9222.00
892.72	8982.00
893.16	8779.00
893.59	8590.00
894.03	8448.00
894.46	8310.00
894.90	8090.00
895.33	7886.00
895.77	7903.00
896.20	7815.00
896.63	7764.00
897.07	7810.00
897.50	7798.00
897.94	7755.00
898.37	8128.00
898.81	7750.00
899.24	7499.00
899.68	7884.00
900.11	7793.00
900.54	7635.00
900.98	7589.00
901.41	7505.00
901.85	7567.00
902.28	7566.00
902.71	7586.00
903.15	7829.00
903.58	8105.00
904.02	8093.00
904.45	8058.00
904.88	7946.00
905.32	8006.00
905.75	8015.00
906.18	7798.00
906.62	7844.00
907.05	7670.00
907.48	7694.00
907.92	7558.00
908.35	7570.00
908.79	7477.00
909.22	7371.00
909.65	7295.00
910.09	7341.00
910.52	7387.00
910.95	7224.00
911.38	7386.00
911.82	7152.00
912.25	7262.00
912.68	7479.00
913.12	7323.00
913.55	7432.00
913.98	7508.00
914.42	7714.00
914.85	7827.00
915.28	7497.00
915.72	7418.00
916.15	7353.00
916.58	7378.00
917.01	7271.00
917.45	7179.00
917.88	7192.00
918.31	7351.00
918.74	7538.00
919.18	7680.00
919.61	7641.00
920.04	7714.00
920.47	7875.00
920.91	7855.00
921.34	7896.00
921.77	7856.00
922.20	7919.00
922.64	8002.00
923.07	7947.00
923.50	7827.00
923.93	7610.00
924.37	7615.00
924.80	7523.00
925.23	7490.00
925.66	7316.00
926.09	6999.00
926.53	7007.00
926.96	6733.00
927.39	6691.00
927.82	6344.00
928.25	6198.00
928.69	6092.00
929.12	6038.00
929.55	5865.00
929.98	5733.00
930.41	5487.00
930.84	5373.00
931.28	5109.00
931.71	4968.00
932.14	4693.00
932.57	4599.00
933.00	4451.00
933.43	4363.00
933.86	4291.00
934.30	4205.00
934.73	4363.00
935.16	4299.00
935.59	4159.00
936.02	4243.00
936.45	4234.00
936.88	4176.00
937.31	4437.00
937.75	4455.00
938.18	4647.00
938.61	4697.00
939.04	4799.00
939.47	4830.00
939.90	4603.00
940.33	4637.00
940.76	4350.00
941.19	4341.00
941.62	4235.00
942.05	4247.00
942.48	4098.00
942.91	4020.00
943.35	4138.00
943.78	4042.00
944.21	4011.00
944.64	4209.00
945.07	4230.00
945.50	4193.00
945.93	4194.00
946.36	4319.00
946.79	4316.00
947.22	4416.00
947.65	4423.00
948.08	4257.00
948.51	4350.00
948.94	4457.00
949.37	4467.00
949.80	4337.00
950.23	4288.00
950.66	4401.00
951.09	4411.00
951.52	4275.00
951.95	4435.00
952.38	4384.00
952.81	4620.00
953.24	4664.00
953.67	4626.00
954.10	4610.00
954.53	4746.00
954.96	4721.00
955.39	4744.00
955.82	4862.00
956.25	4846.00
956.68	4929.00
957.11	4939.00
957.53	4886.00
957.96	4825.00
958.39	4770.00
958.82	4665.00
959.25	4682.00
959.68	4834.00
960.11	5011.00
960.54	4994.00
960.97	5102.00
961.40	5210.00
961.83	5210.00
962.26	5206.00
962.68	5385.00
963.11	5519.00
963.54	5507.00
963.97	5610.00
964.40	5466.00
964.83	5607.00
965.26	5588.00
965.69	5588.00
966.11	5600.00
966.54	5561.00
966.97	5683.00
967.40	5746.00
967.83	5927.00
968.26	5863.00
968.69	5801.00
969.11	5879.00
969.54	5795.00
969.97	5880.00
970.40	5953.00
970.83	5967.00
971.26	5946.00
971.68	5977.00
972.11	5938.00
972.54	6068.00
972.97	5960.00
973.40	5919.00
973.82	5987.00
974.25	5912.00
974.68	5809.00
975.11	5771.00
975.54	5772.00
975.96	5696.00
976.39	5639.00
976.82	5717.00
977.25	5778.00
977.67	5730.00
978.10	5709.00
978.53	5795.00
978.96	5876.00
979.38	6014.00
979.81	5948.00
980.24	6179.00
980.67	6183.00
981.09	6272.00
981.52	6233.00
981.95	6242.00
982.38	6351.00
982.80	6319.00
983.23	6438.00
983.66	6403.00
984.08	6396.00
984.51	6295.00
984.94	6259.00
985.37	6232.00
985.79	6130.00
986.22	6017.00
986.65	6020.00
987.07	6067.00
987.50	6018.00
987.93	6005.00
988.35	5997.00
988.78	6010.00
989.21	6096.00
989.63	6135.00
990.06	6270.00
990.49	6272.00
990.91	6334.00
991.34	6370.00
991.77	6351.00
992.19	6374.00
992.62	6283.00
993.05	6277.00
993.47	6302.00
993.90	6230.00
994.32	6159.00
994.75	6132.00
995.18	5985.00
995.60	5929.00
996.03	5900.00
996.45	5944.00
996.88	5887.00
997.31	5836.00
997.73	5896.00
998.16	5923.00
998.58	5961.00
999.01	5932.00
999.44	6064.00
999.86	6058.00
1000.29	6007.00
1000.71	6130.00
1001.14	6062.00
1001.56	6129.00
1001.99	6022.00
1002.41	5995.00
1002.84	5929.00
1003.27	5747.00
1003.69	5818.00
1004.12	5666.00
1004.54	5669.00
1004.97	5597.00
1005.39	5518.00
1005.82	5578.00
1006.24	5565.00
1006.67	5538.00
1007.09	5489.00
1007.52	5535.00
1007.94	5549.00
1008.37	5655.00
1008.79	5602.00
1009.22	5621.00
1009.64	5603.00
1010.07	5560.00
1010.49	5581.00
1010.92	5592.00
1011.34	5562.00
1011.77	5531.00
1012.19	5538.00
1012.62	5564.00
1013.04	5463.00
1013.46	5510.00
1013.89	5346.00
1014.31	5335.00
1014.74	5271.00
1015.16	5255.00
1015.59	5145.00
1016.01	5272.00
1016.44	5249.00
1016.86	6181.00
1017.28	5262.00
1017.71	5238.00
1018.13	5403.00
1018.56	5401.00
1018.98	5429.00
1019.40	5349.00
1019.83	5435.00
1020.25	5458.00
1020.68	5454.00
1021.10	5527.00
1021.52	5462.00
1021.95	5654.00
1022.37	5524.00
1022.79	5503.00
1023.22	5462.00
1023.64	5488.00
1024.07	5327.00
1024.49	5419.00
1024.91	5267.00
1025.34	5331.00
1025.76	5339.00
1026.18	5246.00
1026.61	5210.00
1027.03	5218.00
1027.45	5239.00
1027.88	5206.00
1028.30	5320.00
1028.72	5242.00
1029.15	5287.00
1029.57	5291.00
1029.99	5360.00
1030.41	5270.00
1030.84	5284.00
1031.26	5326.00
1031.68	5203.00
1032.11	5286.00
1032.53	5172.00
1032.95	5191.00
1033.37	5144.00
1033.80	5131.00
1034.22	4969.00
1034.64	5058.00
1035.06	4942.00
1035.49	4883.00
1035.91	4884.00
1036.33	4790.00
1036.75	4886.00
1037.18	4853.00
1037.60	4849.00
1038.02	4838.00
1038.44	4890.00
1038.87	4798.00
1039.29	4849.00
1039.71	4839.00
1040.13	4787.00
1040.55	4871.00
1040.98	4862.00
1041.40	4816.00
1041.82	4774.00
1042.24	4787.00
1042.66	4813.00
1043.09	4697.00
1043.51	4668.00
1043.93	4658.00
1044.35	4582.00
1044.77	4571.00
1045.20	4557.00
1045.62	4493.00
1046.04	4466.00
1046.46	4480.00
1046.88	4440.00
1047.30	4451.00
1047.72	4434.00
1048.15	4423.00
1048.57	4319.00
1048.99	4434.00
1049.41	4387.00
1049.83	4329.00
1050.25	4394.00
1050.67	4420.00
1051.09	4349.00
1051.52	4414.00
1051.94	4277.00
1052.36	4319.00
1052.78	4286.00
1053.20	4251.00
1053.62	4293.00
1054.04	4303.00
1054.46	4290.00
1054.88	4303.00
1055.30	4246.00
1055.72	4217.00
1056.14	4115.00
1056.57	4339.00
1056.99	4065.00
1057.41	4110.00
1057.83	4146.00
1058.25	4008.00
1058.67	4052.00
1059.09	4005.00
1059.51	4053.00
1059.93	4057.00
1060.35	3983.00
1060.77	4059.00
1061.19	4023.00
1061.61	3994.00
1062.03	3915.00
1062.45	3956.00
1062.87	3986.00
1063.29	3977.00
1063.71	3929.00
1064.13	3914.00
1064.55	3871.00
1064.97	3971.00
1065.39	3868.00
1065.81	3865.00
1066.23	3868.00
1066.65	3858.00
1067.07	3925.00
1067.49	3829.00
1067.91	3745.00
1068.33	3826.00
1068.75	3825.00
1069.17	3843.00
1069.59	3788.00
1070.00	3757.00
1070.42	3755.00
1070.84	3734.00
1071.26	3679.00
1071.68	3670.00
1072.10	3750.00
1072.52	3692.00
1072.94	3667.00
1073.36	3685.00
1073.78	3693.00
1074.20	3673.00
1074.62	3680.00
1075.03	3671.00
1075.45	3702.00
1075.87	3717.00
1076.29	3629.00
1076.71	3700.00
1077.13	3702.00
1077.55	3558.00
1077.97	3588.00
1078.38	3599.00
1078.80	3573.00
1079.22	3598.00
1079.64	3617.00
1080.06	3580.00
1080.48	3571.00
1080.89	3541.00
1081.31	3549.00
1081.73	3516.00
1082.15	3561.00
1082.57	3505.00
1082.99	3496.00
1083.40	3488.00
1083.82	3559.00
1084.24	3456.00
1084.66	3446.00
1085.08	3510.00
1085.49	3426.00
1085.91	3484.00
1086.33	4488.00
1086.75	3458.00
1087.17	3402.00
1087.58	3410.00
1088.00	3467.00
1088.42	3482.00
1088.84	3388.00
1089.25	3405.00
1089.67	3446.00
1090.09	3402.00
1090.51	3359.00
1090.92	3430.00
1091.34	3359.00
1091.76	3327.00
1092.18	3350.00
1092.59	3351.00
1093.01	3369.00
1093.43	3367.00
1093.84	3326.00
1094.26	3297.00
1094.68	3348.00
1095.10	3253.00
1095.51	3304.00
1095.93	3274.00
1096.35	3305.00
1096.76	3293.00
1097.18	3298.00
1097.60	3258.00
1098.01	3259.00
1098.43	3261.00
1098.85	3242.00
1099.26	3197.00
1099.68	3242.00
1100.10	3204.00
1100.51	3200.00
1100.93	3208.00
1101.35	3211.00
1101.76	3223.00
1102.18	3623.00
1102.60	3226.00
1103.01	3103.00
1103.43	3191.00
1103.84	3192.00
1104.26	3101.00
1104.68	3205.00
1105.09	3120.00
1105.51	3130.00
1105.92	3200.00
1106.34	3120.00
1106.76	3134.00
1107.17	3104.00
1107.59	3098.00
1108.00	3055.00
1108.42	3102.00
1108.83	3049.00
1109.25	3055.00
1109.67	3041.00
1110.08	3061.00
1110.50	3023.00
1110.91	3065.00
1111.33	3039.00
1111.74	3001.00
1112.16	3024.00
1112.57	3053.00
1112.99	3011.00
1113.41	3009.00
1113.82	3009.00
1114.24	3013.00
1114.65	2978.00
1115.07	2934.00
1115.48	2864.00
1115.90	2182.00
1116.31	2198.00
1116.73	2192.00
1117.14	2203.00
>>>>>End Processed Spectral Data<<<<<
