SpectraSuite Data File
++++++++++++++++++++++++++++++++++++
Date: Tue May 29 12:59:31 EEST 2018
User: CanSEE
Dark Spectrum Present: No
Reference Spectrum Present: No
Number of Sampled Component Spectra: 1
Spectrometers: MAYP11278
Integration Time (usec): 250000 (MAYP11278)
Spectra Averaged: 1 (MAYP11278)
Boxcar Smoothing: 0 (MAYP11278)
Correct for Electrical Dark: No (MAYP11278)
Strobe/Lamp Enabled: No (MAYP11278)
Correct for Detector Non-linearity: No (MAYP11278)
Correct for Stray Light: No (MAYP11278)
Number of Pixels in Processed Spectrum: 2068
>>>>>Begin Processed Spectral Data<<<<<
187.82	2321.00
188.30	2225.00
188.78	2200.00
189.26	2204.00
189.73	2956.00
190.21	3083.00
190.69	3171.00
191.17	3195.00
191.64	3202.00
192.12	3152.00
192.60	3160.00
193.07	3136.00
193.55	3216.00
194.03	3167.00
194.51	3185.00
194.98	3156.00
195.46	3204.00
195.94	3193.00
196.42	3155.00
196.89	3250.00
197.37	3171.00
197.85	3129.00
198.32	3178.00
198.80	3126.00
199.28	3212.00
199.76	3207.00
200.23	3167.00
200.71	3163.00
201.19	3218.00
201.66	3172.00
202.14	3163.00
202.62	3143.00
203.09	3178.00
203.57	3149.00
204.05	3223.00
204.53	3208.00
205.00	3157.00
205.48	3138.00
205.96	3235.00
206.43	3104.00
206.91	3162.00
207.39	3283.00
207.86	3167.00
208.34	3215.00
208.82	3159.00
209.29	3212.00
209.77	3185.00
210.25	3169.00
210.72	3183.00
211.20	3207.00
211.68	3197.00
212.15	3144.00
212.63	3242.00
213.11	3193.00
213.58	3172.00
214.06	3239.00
214.53	3203.00
215.01	3221.00
215.49	3197.00
215.96	3181.00
216.44	3196.00
216.92	3176.00
217.39	3193.00
217.87	3210.00
218.35	3219.00
218.82	3156.00
219.30	3145.00
219.77	3155.00
220.25	3149.00
220.73	3235.00
221.20	3167.00
221.68	3183.00
222.15	3154.00
222.63	3184.00
223.11	3160.00
223.58	3221.00
224.06	3179.00
224.53	3160.00
225.01	3135.00
225.49	3194.00
225.96	3154.00
226.44	3186.00
226.91	3164.00
227.39	3174.00
227.87	3179.00
228.34	3179.00
228.82	3197.00
229.29	3189.00
229.77	3180.00
230.24	3149.00
230.72	3209.00
231.20	3197.00
231.67	3221.00
232.15	3175.00
232.62	3165.00
233.10	3172.00
233.57	3165.00
234.05	3355.00
234.53	3233.00
235.00	3170.00
235.48	3154.00
235.95	3204.00
236.43	3231.00
236.90	3258.00
237.38	3165.00
237.85	3211.00
238.33	3166.00
238.80	3176.00
239.28	3183.00
239.75	3159.00
240.23	3204.00
240.71	3245.00
241.18	3156.00
241.66	3195.00
242.13	3214.00
242.61	3201.00
243.08	3147.00
243.56	3164.00
244.03	3210.00
244.51	3263.00
244.98	3162.00
245.46	3199.00
245.93	4223.00
246.41	3114.00
246.88	3172.00
247.36	3177.00
247.83	3194.00
248.31	3234.00
248.78	3136.00
249.26	3215.00
249.73	3222.00
250.21	3188.00
250.68	3235.00
251.16	3179.00
251.63	3260.00
252.10	3217.00
252.58	3185.00
253.05	3257.00
253.53	3195.00
254.00	3172.00
254.48	3169.00
254.95	3218.00
255.43	3213.00
255.90	3176.00
256.38	3188.00
256.85	3205.00
257.33	3233.00
257.80	3285.00
258.27	3230.00
258.75	3191.00
259.22	3214.00
259.70	3204.00
260.17	3237.00
260.65	3199.00
261.12	3175.00
261.59	3236.00
262.07	3180.00
262.54	3223.00
263.02	3215.00
263.49	3162.00
263.97	3242.00
264.44	3241.00
264.91	3209.00
265.39	3237.00
265.86	3217.00
266.34	3238.00
266.81	3204.00
267.28	3206.00
267.76	3211.00
268.23	3248.00
268.71	3122.00
269.18	3135.00
269.65	3163.00
270.13	3192.00
270.60	3224.00
271.08	3174.00
271.55	3197.00
272.02	3172.00
272.50	3187.00
272.97	3154.00
273.44	3221.00
273.92	3321.00
274.39	3206.00
274.87	3228.00
275.34	3170.00
275.81	3163.00
276.29	3171.00
276.76	3180.00
277.23	3126.00
277.71	3145.00
278.18	3069.00
278.65	3246.00
279.13	3118.00
279.60	3169.00
280.07	3435.00
280.55	3410.00
281.02	3448.00
281.50	3262.00
281.97	3322.00
282.44	3246.00
282.91	3233.00
283.39	3234.00
283.86	3229.00
284.33	3153.00
284.81	3243.00
285.28	3201.00
285.75	3214.00
286.23	3229.00
286.70	3191.00
287.17	3242.00
287.65	3278.00
288.12	3199.00
288.59	3224.00
289.07	3145.00
289.54	3249.00
290.01	3170.00
290.48	3221.00
290.96	3176.00
291.43	3235.00
291.90	3294.00
292.38	3142.00
292.85	3267.00
293.32	3217.00
293.79	3236.00
294.27	3258.00
294.74	3219.00
295.21	3251.00
295.69	3260.00
296.16	3215.00
296.63	3282.00
297.10	3267.00
297.58	3216.00
298.05	3252.00
298.52	3197.00
298.99	3291.00
299.47	3211.00
299.94	3244.00
300.41	3182.00
300.88	3236.00
301.36	3240.00
301.83	3242.00
302.30	3168.00
302.77	3234.00
303.25	3243.00
303.72	3197.00
304.19	3174.00
304.66	3188.00
305.13	3202.00
305.61	3230.00
306.08	3211.00
306.55	3251.00
307.02	3200.00
307.49	3205.00
307.97	3197.00
308.44	3200.00
308.91	3258.00
309.38	3230.00
309.86	3218.00
310.33	3192.00
310.80	3201.00
311.27	3223.00
311.74	3287.00
312.21	3251.00
312.69	3295.00
313.16	3197.00
313.63	3200.00
314.10	3256.00
314.57	3159.00
315.05	3180.00
315.52	3227.00
315.99	3249.00
316.46	3249.00
316.93	3254.00
317.40	3256.00
317.88	3337.00
318.35	3222.00
318.82	3199.00
319.29	3198.00
319.76	3234.00
320.23	3309.00
320.70	3274.00
321.18	3189.00
321.65	3179.00
322.12	3171.00
322.59	3268.00
323.06	3226.00
323.53	3346.00
324.00	3166.00
324.48	3256.00
324.95	3255.00
325.42	3238.00
325.89	3211.00
326.36	3217.00
326.83	3252.00
327.30	3260.00
327.77	3239.00
328.24	3231.00
328.72	3217.00
329.19	3212.00
329.66	3219.00
330.13	3235.00
330.60	3277.00
331.07	3267.00
331.54	3335.00
332.01	3232.00
332.48	3323.00
332.95	3260.00
333.43	3273.00
333.90	3328.00
334.37	3289.00
334.84	3272.00
335.31	3368.00
335.78	3192.00
336.25	3242.00
336.72	3234.00
337.19	3226.00
337.66	3193.00
338.13	3240.00
338.60	3282.00
339.07	3260.00
339.54	3218.00
340.01	3180.00
340.49	3179.00
340.96	3234.00
341.43	3258.00
341.90	3210.00
342.37	3243.00
342.84	3233.00
343.31	3204.00
343.78	3245.00
344.25	3250.00
344.72	3215.00
345.19	3207.00
345.66	3237.00
346.13	3206.00
346.60	3169.00
347.07	3306.00
347.54	3227.00
348.01	3276.00
348.48	3201.00
348.95	3170.00
349.42	3222.00
349.89	3244.00
350.36	3202.00
350.83	3201.00
351.30	3219.00
351.77	3274.00
352.24	3266.00
352.71	3194.00
353.18	3207.00
353.65	3245.00
354.12	3225.00
354.59	3215.00
355.06	3233.00
355.53	3307.00
356.00	3205.00
356.47	3310.00
356.94	3191.00
357.41	3362.00
357.88	3246.00
358.35	3172.00
358.82	3203.00
359.28	3207.00
359.75	3201.00
360.22	3256.00
360.69	3268.00
361.16	3229.00
361.63	3222.00
362.10	3245.00
362.57	3186.00
363.04	3239.00
363.51	3313.00
363.98	3239.00
364.45	3201.00
364.92	3237.00
365.39	3218.00
365.86	3195.00
366.32	3242.00
366.79	3229.00
367.26	3819.00
367.73	3252.00
368.20	3211.00
368.67	3256.00
369.14	3179.00
369.61	3251.00
370.08	3203.00
370.55	3225.00
371.02	3757.00
371.48	3247.00
371.95	3195.00
372.42	3186.00
372.89	3215.00
373.36	3250.00
373.83	3216.00
374.30	3183.00
374.77	3250.00
375.23	3169.00
375.70	3285.00
376.17	3235.00
376.64	3198.00
377.11	3208.00
377.58	3259.00
378.05	3242.00
378.51	3247.00
378.98	3228.00
379.45	3250.00
379.92	3248.00
380.39	3362.00
380.86	3246.00
381.33	3278.00
381.79	3278.00
382.26	3167.00
382.73	3286.00
383.20	3219.00
383.67	3267.00
384.14	3233.00
384.60	3412.00
385.07	3223.00
385.54	3238.00
386.01	3244.00
386.48	3317.00
386.94	3198.00
387.41	3193.00
387.88	3242.00
388.35	3303.00
388.82	3281.00
389.28	3216.00
389.75	3263.00
390.22	3273.00
390.69	3269.00
391.16	3264.00
391.62	3255.00
392.09	3242.00
392.56	3220.00
393.03	3219.00
393.50	3328.00
393.96	3270.00
394.43	3299.00
394.90	3220.00
395.37	3293.00
395.83	3447.00
396.30	3211.00
396.77	3264.00
397.24	3251.00
397.70	3239.00
398.17	3290.00
398.64	3234.00
399.11	3207.00
399.57	3269.00
400.04	3199.00
400.51	3256.00
400.98	3255.00
401.44	3278.00
401.91	3262.00
402.38	3251.00
402.84	3227.00
403.31	3358.00
403.78	3248.00
404.25	3327.00
404.71	3356.00
405.18	3296.00
405.65	3218.00
406.12	3283.00
406.58	3298.00
407.05	3329.00
407.52	3269.00
407.98	3910.00
408.45	3285.00
408.92	3250.00
409.38	3304.00
409.85	3224.00
410.32	3286.00
410.78	3247.00
411.25	3348.00
411.72	3269.00
412.18	3190.00
412.65	3241.00
413.12	3243.00
413.59	3244.00
414.05	3289.00
414.52	3342.00
414.98	3240.00
415.45	3320.00
415.92	3278.00
416.38	3314.00
416.85	3346.00
417.32	3298.00
417.78	3253.00
418.25	3255.00
418.72	3260.00
419.18	3279.00
419.65	3233.00
420.12	3338.00
420.58	3217.00
421.05	3253.00
421.51	3251.00
421.98	3278.00
422.45	3249.00
422.91	3262.00
423.38	3236.00
423.85	3301.00
424.31	3307.00
424.78	3288.00
425.24	3277.00
425.71	3345.00
426.18	3240.00
426.64	3327.00
427.11	3267.00
427.57	3318.00
428.04	3220.00
428.51	3312.00
428.97	3283.00
429.44	3270.00
429.90	3271.00
430.37	3381.00
430.83	3214.00
431.30	3259.00
431.77	3335.00
432.23	3343.00
432.70	3250.00
433.16	3261.00
433.63	3276.00
434.09	3244.00
434.56	3312.00
435.03	3244.00
435.49	3304.00
435.96	3253.00
436.42	3253.00
436.89	3301.00
437.35	3293.00
437.82	3268.00
438.28	3239.00
438.75	3276.00
439.21	3445.00
439.68	3322.00
440.14	3271.00
440.61	3319.00
441.07	3241.00
441.54	3268.00
442.00	3393.00
442.47	3225.00
442.94	3318.00
443.40	3319.00
443.87	3244.00
444.33	3356.00
444.80	3288.00
445.26	3304.00
445.73	3269.00
446.19	3285.00
446.65	3287.00
447.12	3306.00
447.58	3257.00
448.05	3249.00
448.51	3334.00
448.98	3282.00
449.44	3291.00
449.91	3265.00
450.37	3264.00
450.84	3296.00
451.30	3262.00
451.77	3344.00
452.23	3240.00
452.70	3320.00
453.16	3275.00
453.62	3296.00
454.09	3318.00
454.55	3276.00
455.02	3258.00
455.48	3274.00
455.95	3295.00
456.41	3258.00
456.88	3343.00
457.34	3275.00
457.80	3263.00
458.27	3220.00
458.73	3285.00
459.20	3278.00
459.66	3296.00
460.13	3241.00
460.59	3197.00
461.05	3280.00
461.52	3304.00
461.98	3214.00
462.45	3209.00
462.91	3269.00
463.37	3218.00
463.84	3228.00
464.30	3243.00
464.76	3188.00
465.23	3202.00
465.69	3227.00
466.16	3245.00
466.62	3224.00
467.08	3199.00
467.55	3192.00
468.01	3209.00
468.48	3191.00
468.94	3203.00
469.40	3120.00
469.87	3222.00
470.33	3205.00
470.79	3155.00
471.26	3177.00
471.72	3128.00
472.18	3123.00
472.65	3163.00
473.11	3211.00
473.57	3161.00
474.04	3144.00
474.50	3193.00
474.96	3126.00
475.43	3173.00
475.89	3155.00
476.35	3174.00
476.82	3131.00
477.28	3164.00
477.74	3175.00
478.21	3151.00
478.67	3185.00
479.13	3114.00
479.59	3224.00
480.06	3161.00
480.52	3157.00
480.98	3167.00
481.45	3123.00
481.91	3173.00
482.37	3123.00
482.84	3129.00
483.30	3143.00
483.76	3132.00
484.22	3181.00
484.69	3148.00
485.15	3095.00
485.61	3064.00
486.07	3109.00
486.54	3052.00
487.00	3159.00
487.46	3089.00
487.92	3129.00
488.39	3138.00
488.85	3156.00
489.31	3161.00
489.77	3193.00
490.24	3085.00
490.70	3159.00
491.16	3096.00
491.62	3108.00
492.09	3111.00
492.55	3166.00
493.01	3147.00
493.47	3130.00
493.94	3147.00
494.40	3139.00
494.86	3134.00
495.32	3161.00
495.78	3201.00
496.25	3138.00
496.71	3163.00
497.17	3249.00
497.63	3267.00
498.09	3185.00
498.56	3187.00
499.02	3191.00
499.48	3281.00
499.94	3236.00
500.40	3193.00
500.87	3224.00
501.33	3198.00
501.79	3234.00
502.25	3241.00
502.71	3507.00
503.17	3268.00
503.64	3301.00
504.10	3288.00
504.56	3296.00
505.02	3347.00
505.48	3345.00
505.94	3363.00
506.40	3410.00
506.87	3365.00
507.33	3400.00
507.79	3406.00
508.25	3430.00
508.71	3406.00
509.17	3443.00
509.63	3459.00
510.10	3534.00
510.56	3541.00
511.02	3567.00
511.48	3709.00
511.94	3584.00
512.40	3595.00
512.86	3632.00
513.32	3746.00
513.78	3680.00
514.25	3786.00
514.71	4315.00
515.17	3731.00
515.63	3883.00
516.09	3853.00
516.55	3887.00
517.01	3967.00
517.47	3940.00
517.93	3978.00
518.39	4183.00
518.85	4092.00
519.32	4190.00
519.78	4233.00
520.24	4261.00
520.70	4360.00
521.16	4426.00
521.62	4500.00
522.08	4503.00
522.54	4591.00
523.00	4699.00
523.46	4741.00
523.92	4730.00
524.38	4898.00
524.84	4875.00
525.30	4948.00
525.76	4911.00
526.22	4847.00
526.68	4782.00
527.14	4931.00
527.60	5060.00
528.06	5183.00
528.52	5220.00
528.98	5287.00
529.44	5272.00
529.90	5349.00
530.36	5439.00
530.82	5522.00
531.28	5572.00
531.74	5438.00
532.20	5458.00
532.66	5438.00
533.12	5547.00
533.58	5577.00
534.04	5537.00
534.50	5714.00
534.96	5717.00
535.42	5822.00
535.88	5693.00
536.34	5786.00
536.80	5623.00
537.26	5813.00
537.72	5823.00
538.18	5820.00
538.64	5862.00
539.10	5837.00
539.56	5961.00
540.02	5693.00
540.48	5777.00
540.94	5806.00
541.40	5807.00
541.86	5890.00
542.32	5790.00
542.78	5845.00
543.24	5975.00
543.69	5930.00
544.15	5983.00
544.61	5926.00
545.07	5902.00
545.53	5984.00
545.99	6038.00
546.45	5996.00
546.91	5978.00
547.37	6023.00
547.83	5993.00
548.29	6067.00
548.74	6061.00
549.20	6038.00
549.66	6166.00
550.12	6045.00
550.58	6026.00
551.04	6113.00
551.50	6115.00
551.96	6273.00
552.42	6200.00
552.87	6043.00
553.33	6190.00
553.79	6108.00
554.25	6108.00
554.71	6207.00
555.17	6139.00
555.63	6152.00
556.08	6122.00
556.54	6047.00
557.00	5960.00
557.46	6002.00
557.92	6076.00
558.38	5971.00
558.83	5871.00
559.29	5884.00
559.75	5904.00
560.21	5857.00
560.67	5957.00
561.13	5852.00
561.58	5865.00
562.04	5829.00
562.50	5806.00
562.96	5831.00
563.42	5801.00
563.87	5686.00
564.33	5652.00
564.79	5698.00
565.25	5557.00
565.71	5496.00
566.16	5542.00
566.62	5601.00
567.08	5564.00
567.54	5458.00
568.00	5411.00
568.45	5323.00
568.91	5281.00
569.37	5333.00
569.83	5274.00
570.28	5208.00
570.74	5113.00
571.20	5148.00
571.66	5139.00
572.11	5138.00
572.57	5032.00
573.03	5046.00
573.49	4979.00
573.94	5009.00
574.40	5013.00
574.86	4942.00
575.32	4798.00
575.77	4869.00
576.23	4715.00
576.69	4829.00
577.15	4825.00
577.60	4723.00
578.06	4678.00
578.52	4708.00
578.97	4674.00
579.43	4643.00
579.89	4689.00
580.34	4634.00
580.80	4634.00
581.26	4608.00
581.72	4611.00
582.17	4578.00
582.63	4576.00
583.09	4585.00
583.54	4650.00
584.00	4549.00
584.46	4588.00
584.91	4512.00
585.37	4620.00
585.83	4425.00
586.28	4429.00
586.74	4459.00
587.20	4398.00
587.65	4433.00
588.11	4349.00
588.57	4303.00
589.02	4232.00
589.48	4215.00
589.94	4274.00
590.39	4354.00
590.85	4316.00
591.30	4307.00
591.76	4338.00
592.22	4282.00
592.67	4301.00
593.13	4259.00
593.59	4360.00
594.04	4260.00
594.50	4260.00
594.95	4305.00
595.41	4253.00
595.87	4281.00
596.32	4275.00
596.78	4370.00
597.23	4302.00
597.69	4215.00
598.15	4199.00
598.60	4260.00
599.06	4299.00
599.51	4221.00
599.97	4222.00
600.43	4281.00
600.88	4211.00
601.34	4186.00
601.79	4154.00
602.25	4281.00
602.70	4183.00
603.16	4185.00
603.61	4173.00
604.07	4146.00
604.53	4246.00
604.98	4204.00
605.44	4231.00
605.89	4133.00
606.35	4060.00
606.80	4197.00
607.26	4103.00
607.71	4128.00
608.17	4106.00
608.62	4135.00
609.08	4171.00
609.53	4080.00
609.99	4039.00
610.44	4012.00
610.90	4066.00
611.35	3953.00
611.81	4067.00
612.26	3997.00
612.72	3929.00
613.17	4101.00
613.63	3914.00
614.08	3862.00
614.54	3884.00
614.99	3884.00
615.45	3867.00
615.90	3823.00
616.36	3796.00
616.81	3844.00
617.27	3858.00
617.72	3893.00
618.18	3818.00
618.63	3842.00
619.09	3792.00
619.54	3823.00
619.99	3824.00
620.45	3818.00
620.90	3873.00
621.36	3741.00
621.81	3847.00
622.27	3821.00
622.72	3842.00
623.18	3760.00
623.63	3750.00
624.08	3783.00
624.54	3708.00
624.99	3751.00
625.45	3759.00
625.90	3708.00
626.35	3759.00
626.81	3762.00
627.26	3723.00
627.72	3709.00
628.17	3791.00
628.62	3695.00
629.08	3701.00
629.53	3734.00
629.99	3712.00
630.44	3721.00
630.89	3744.00
631.35	3757.00
631.80	3772.00
632.26	3750.00
632.71	3666.00
633.16	3712.00
633.62	3663.00
634.07	3678.00
634.52	3681.00
634.98	3697.00
635.43	3675.00
635.88	3651.00
636.34	3697.00
636.79	3673.00
637.24	3648.00
637.70	3651.00
638.15	3656.00
638.60	3612.00
639.06	3641.00
639.51	3593.00
639.96	3555.00
640.42	3610.00
640.87	3567.00
641.32	3498.00
641.78	3490.00
642.23	3519.00
642.68	3468.00
643.14	3473.00
643.59	3524.00
644.04	3491.00
644.49	3410.00
644.95	3430.00
645.40	3425.00
645.85	3386.00
646.31	3406.00
646.76	3411.00
647.21	3416.00
647.66	3424.00
648.12	3412.00
648.57	3351.00
649.02	3370.00
649.47	3320.00
649.93	3489.00
650.38	3288.00
650.83	3301.00
651.28	3294.00
651.74	3308.00
652.19	3327.00
652.64	3343.00
653.09	3273.00
653.55	3305.00
654.00	3321.00
654.45	3327.00
654.90	3329.00
655.35	3248.00
655.81	3320.00
656.26	3187.00
656.71	3233.00
657.16	3278.00
657.62	3310.00
658.07	3237.00
658.52	3261.00
658.97	3206.00
659.42	3400.00
659.88	3223.00
660.33	3259.00
660.78	3277.00
661.23	3191.00
661.68	3194.00
662.13	3170.00
662.59	3129.00
663.04	3204.00
663.49	3156.00
663.94	3145.00
664.39	3176.00
664.84	3123.00
665.30	3174.00
665.75	3138.00
666.20	3195.00
666.65	3134.00
667.10	3248.00
667.55	3190.00
668.00	3114.00
668.46	3136.00
668.91	3088.00
669.36	3242.00
669.81	3067.00
670.26	3083.00
670.71	3143.00
671.16	3125.00
671.61	3208.00
672.06	3194.00
672.52	3119.00
672.97	3109.00
673.42	3150.00
673.87	3243.00
674.32	3127.00
674.77	3151.00
675.22	3054.00
675.67	3073.00
676.12	3146.00
676.57	3121.00
677.02	3099.00
677.47	3124.00
677.93	3234.00
678.38	3049.00
678.83	3100.00
679.28	3143.00
679.73	3091.00
680.18	3139.00
680.63	3134.00
681.08	3071.00
681.53	3062.00
681.98	3089.00
682.43	3133.00
682.88	3177.00
683.33	3177.00
683.78	3154.00
684.23	3176.00
684.68	3185.00
685.13	3198.00
685.58	3200.00
686.03	3190.00
686.48	3169.00
686.93	3170.00
687.38	3158.00
687.83	3207.00
688.28	3240.00
688.73	3371.00
689.18	3335.00
689.63	3273.00
690.08	3362.00
690.53	3428.00
690.98	3453.00
691.43	3517.00
691.88	3540.00
692.33	3623.00
692.78	3692.00
693.23	3818.00
693.68	3861.00
694.13	3943.00
694.58	4009.00
695.03	4311.00
695.48	4235.00
695.93	4326.00
696.38	4577.00
696.83	4615.00
697.28	4716.00
697.72	4892.00
698.17	4987.00
698.62	5085.00
699.07	5326.00
699.52	5412.00
699.97	5522.00
700.42	5704.00
700.87	5858.00
701.32	6183.00
701.77	6123.00
702.22	6361.00
702.67	6467.00
703.11	6716.00
703.56	6906.00
704.01	7045.00
704.46	7336.00
704.91	7546.00
705.36	7711.00
705.81	7828.00
706.26	8002.00
706.70	8206.00
707.15	8425.00
707.60	8600.00
708.05	8838.00
708.50	9063.00
708.95	9179.00
709.40	9382.00
709.84	9569.00
710.29	9739.00
710.74	9818.00
711.19	10102.00
711.64	10310.00
712.09	10458.00
712.53	10736.00
712.98	10854.00
713.43	10963.00
713.88	11288.00
714.33	11432.00
714.78	11356.00
715.22	11542.00
715.67	11627.00
716.12	11678.00
716.57	11493.00
717.02	11145.00
717.46	10910.00
717.91	11060.00
718.36	10954.00
718.81	10826.00
719.26	10884.00
719.70	11134.00
720.15	11389.00
720.60	11938.00
721.05	12845.00
721.49	13328.00
721.94	13683.00
722.39	13779.00
722.84	13555.00
723.28	13092.00
723.73	13114.00
724.18	13209.00
724.63	13537.00
725.07	13663.00
725.52	13846.00
725.97	14257.00
726.42	14444.00
726.86	14704.00
727.31	14580.00
727.76	14634.00
728.21	15012.00
728.65	15144.00
729.10	15117.00
729.55	15452.00
729.99	16012.00
730.44	16003.00
730.89	16226.00
731.33	16654.00
731.78	17020.00
732.23	17628.00
732.68	17814.00
733.12	18186.00
733.57	18616.00
734.02	18971.00
734.46	19300.00
734.91	19107.00
735.36	19470.00
735.80	19722.00
736.25	19736.00
736.70	19926.00
737.14	20242.00
737.59	20550.00
738.04	20535.00
738.48	20220.00
738.93	20358.00
739.37	20662.00
739.82	20930.00
740.27	21374.00
740.71	21221.00
741.16	21322.00
741.61	21287.00
742.05	21328.00
742.50	21788.00
742.94	21913.00
743.39	22142.00
743.84	22044.00
744.28	21977.00
744.73	22215.00
745.18	22514.00
745.62	22709.00
746.07	22762.00
746.51	22703.00
746.96	22787.00
747.40	22661.00
747.85	22495.00
748.30	22715.00
748.74	22724.00
749.19	22511.00
749.63	22822.00
750.08	22782.00
750.52	22851.00
750.97	22846.00
751.42	22798.00
751.86	22902.00
752.31	22677.00
752.75	22760.00
753.20	22685.00
753.64	22825.00
754.09	22802.00
754.53	22959.00
754.98	22890.00
755.42	22853.00
755.87	22879.00
756.31	22845.00
756.76	22698.00
757.20	22401.00
757.65	22445.00
758.09	22060.00
758.54	21504.00
758.98	19824.00
759.43	16007.00
759.87	11679.00
760.32	9018.00
760.76	8605.00
761.21	10194.00
761.65	12520.00
762.10	13325.00
762.54	12628.00
762.99	12082.00
763.43	12156.00
763.88	13005.00
764.32	13908.00
764.77	14979.00
765.21	15969.00
765.66	16925.00
766.10	17849.00
766.54	18811.00
766.99	19618.00
767.43	20264.00
767.88	20967.00
768.32	21350.00
768.77	21639.00
769.21	21977.00
769.66	22295.00
770.10	22510.00
770.54	22577.00
770.99	22595.00
771.43	22582.00
771.88	22363.00
772.32	22471.00
772.76	22337.00
773.21	22444.00
773.65	22367.00
774.10	22501.00
774.54	22305.00
774.98	22189.00
775.43	22612.00
775.87	22863.00
776.31	22771.00
776.76	22817.00
777.20	22697.00
777.65	22693.00
778.09	22378.00
778.53	22328.00
778.98	22198.00
779.42	22288.00
779.86	22258.00
780.31	22233.00
780.75	22365.00
781.19	22445.00
781.64	22476.00
782.08	22633.00
782.52	22485.00
782.97	22113.00
783.41	22101.00
783.85	21878.00
784.30	21756.00
784.74	21678.00
785.18	21636.00
785.63	21676.00
786.07	21720.00
786.51	21780.00
786.95	21774.00
787.40	21512.00
787.84	21689.00
788.28	21529.00
788.73	21442.00
789.17	21080.00
789.61	20888.00
790.05	20832.00
790.50	20660.00
790.94	20703.00
791.38	20694.00
791.82	20650.00
792.27	20693.00
792.71	20774.00
793.15	20964.00
793.59	20841.00
794.04	20650.00
794.48	20636.00
794.92	20374.00
795.36	20202.00
795.81	20017.00
796.25	20120.00
796.69	20251.00
797.13	20384.00
797.57	20565.00
798.02	20709.00
798.46	20662.00
798.90	20654.00
799.34	20420.00
799.79	20316.00
800.23	19934.00
800.67	19755.00
801.11	19615.00
801.55	19669.00
801.99	19630.00
802.44	19662.00
802.88	19814.00
803.32	19947.00
803.76	20140.00
804.20	20060.00
804.64	19960.00
805.09	19971.00
805.53	20042.00
805.97	19834.00
806.41	19708.00
806.85	19428.00
807.29	19178.00
807.74	19146.00
808.18	19196.00
808.62	19360.00
809.06	19330.00
809.50	19144.00
809.94	19227.00
810.38	19245.00
810.82	19238.00
811.27	19279.00
811.71	18796.00
812.15	18497.00
812.59	17912.00
813.03	17632.00
813.47	16968.00
813.91	16570.00
814.35	16530.00
814.79	16290.00
815.23	16148.00
815.67	15918.00
816.12	16117.00
816.56	15916.00
817.00	16128.00
817.44	16123.00
817.88	16144.00
818.32	15865.00
818.76	16018.00
819.20	16050.00
819.64	16033.00
820.08	16349.00
820.52	16626.00
820.96	17152.00
821.40	16765.00
821.84	16403.00
822.28	15574.00
822.72	15266.00
823.16	15159.00
823.60	15874.00
824.04	16929.00
824.48	17233.00
824.92	17267.00
825.36	17139.00
825.80	16878.00
826.24	16917.00
826.68	16559.00
827.12	16552.00
827.56	16429.00
828.00	16312.00
828.44	16438.00
828.88	16641.00
829.32	16719.00
829.76	16797.00
830.20	17092.00
830.64	16921.00
831.08	16792.00
831.52	16681.00
831.96	16423.00
832.40	16217.00
832.84	16391.00
833.28	16517.00
833.72	16806.00
834.16	17021.00
834.60	17535.00
835.04	17635.00
835.48	17971.00
835.91	17800.00
836.35	17530.00
836.79	17664.00
837.23	17603.00
837.67	17233.00
838.11	17068.00
838.55	17250.00
838.99	17128.00
839.43	17424.00
839.87	17802.00
840.30	17880.00
840.74	18162.00
841.18	18364.00
841.62	18388.00
842.06	18319.00
842.50	18240.00
842.94	17825.00
843.38	17656.00
843.81	17491.00
844.25	17360.00
844.69	17169.00
845.13	17273.00
845.57	17335.00
846.01	17425.00
846.45	17502.00
846.88	17804.00
847.32	17919.00
847.76	18094.00
848.20	18040.00
848.64	18001.00
849.08	17685.00
849.51	17522.00
849.95	17157.00
850.39	17110.00
850.83	17337.00
851.27	17245.00
851.70	17030.00
852.14	16928.00
852.58	16712.00
853.02	16256.00
853.46	15748.00
853.89	15896.00
854.33	15800.00
854.77	16374.00
855.21	17430.00
855.65	17733.00
856.08	17939.00
856.52	17998.00
856.96	17669.00
857.40	17536.00
857.83	17108.00
858.27	17016.00
858.71	16618.00
859.15	16790.00
859.58	16801.00
860.02	17169.00
860.46	17309.00
860.89	17685.00
861.33	17694.00
861.77	17879.00
862.21	18074.00
862.64	17971.00
863.08	17871.00
863.52	17781.00
863.95	17422.00
864.39	17140.00
864.83	16489.00
865.27	15980.00
865.70	15708.00
866.14	15479.00
866.58	15460.00
867.01	16270.00
867.45	16804.00
867.89	17048.00
868.32	17491.00
868.76	17688.00
869.20	17736.00
869.63	17789.00
870.07	17510.00
870.51	16934.00
870.94	16793.00
871.38	16293.00
871.82	16183.00
872.25	16123.00
872.69	16187.00
873.13	16194.00
873.56	16396.00
874.00	16595.00
874.43	16768.00
874.87	17087.00
875.31	17270.00
875.74	16979.00
876.18	17368.00
876.61	17347.00
877.05	17095.00
877.49	16766.00
877.92	16592.00
878.36	16301.00
878.79	16196.00
879.23	15958.00
879.67	15602.00
880.10	15523.00
880.54	15763.00
880.97	15870.00
881.41	16393.00
881.84	16711.00
882.28	16952.00
882.72	17221.00
883.15	17392.00
883.59	17304.00
884.02	17296.00
884.46	17113.00
884.89	16824.00
885.33	16552.00
885.76	16093.00
886.20	15831.00
886.63	15565.00
887.07	15445.00
887.50	15657.00
887.94	15739.00
888.37	15823.00
888.81	16117.00
889.24	16219.00
889.68	16444.00
890.11	16487.00
890.55	16555.00
890.98	16775.00
891.42	16867.00
891.85	16762.00
892.29	16515.00
892.72	16103.00
893.16	15596.00
893.59	15231.00
894.03	14740.00
894.46	14418.00
894.90	13953.00
895.33	13420.00
895.77	13442.00
896.20	13370.00
896.63	13245.00
897.07	13584.00
897.50	13370.00
897.94	13407.00
898.37	13962.00
898.81	13275.00
899.24	12937.00
899.68	13659.00
900.11	13458.00
900.54	12980.00
900.98	12810.00
901.41	12784.00
901.85	12829.00
902.28	12882.00
902.71	13042.00
903.15	13541.00
903.58	13974.00
904.02	13940.00
904.45	13872.00
904.88	13971.00
905.32	13784.00
905.75	13889.00
906.18	13490.00
906.62	13452.00
907.05	13170.00
907.48	13132.00
907.92	13060.00
908.35	12946.00
908.79	12778.00
909.22	12652.00
909.65	12464.00
910.09	12510.00
910.52	12414.00
910.95	12220.00
911.38	12523.00
911.82	12072.00
912.25	12314.00
912.68	12602.00
913.12	12493.00
913.55	12691.00
913.98	12879.00
914.42	13403.00
914.85	13554.00
915.28	12887.00
915.72	12659.00
916.15	12525.00
916.58	12699.00
917.01	12318.00
917.45	11888.00
917.88	12222.00
918.31	12552.00
918.74	12910.00
919.18	13136.00
919.61	12997.00
920.04	13372.00
920.47	13484.00
920.91	13593.00
921.34	13529.00
921.77	13654.00
922.20	13722.00
922.64	13866.00
923.07	13537.00
923.50	13518.00
923.93	13200.00
924.37	13026.00
924.80	12905.00
925.23	12723.00
925.66	12395.00
926.09	11693.00
926.53	11655.00
926.96	11247.00
927.39	11008.00
927.82	10461.00
928.25	10092.00
928.69	9900.00
929.12	9765.00
929.55	9379.00
929.98	9020.00
930.41	8669.00
930.84	8237.00
931.28	7729.00
931.71	7280.00
932.14	6792.00
932.57	6493.00
933.00	6183.00
933.43	6021.00
933.86	5865.00
934.30	5660.00
934.73	6074.00
935.16	5963.00
935.59	5640.00
936.02	5802.00
936.45	5786.00
936.88	5729.00
937.31	6159.00
937.75	6311.00
938.18	6635.00
938.61	6859.00
939.04	7156.00
939.47	7040.00
939.90	6569.00
940.33	6504.00
940.76	6066.00
941.19	5978.00
941.62	5823.00
942.05	5751.00
942.48	5350.00
942.91	5295.00
943.35	5598.00
943.78	5389.00
944.21	5351.00
944.64	5581.00
945.07	5735.00
945.50	5645.00
945.93	5730.00
946.36	5923.00
946.79	5967.00
947.22	6291.00
947.65	6152.00
948.08	5901.00
948.51	6141.00
948.94	6358.00
949.37	6235.00
949.80	5971.00
950.23	5958.00
950.66	6239.00
951.09	6250.00
951.52	5928.00
951.95	6094.00
952.38	6095.00
952.81	6474.00
953.24	6799.00
953.67	6884.00
954.10	6708.00
954.53	6942.00
954.96	6958.00
955.39	7032.00
955.82	7379.00
956.25	7158.00
956.68	7397.00
957.11	7380.00
957.53	7255.00
957.96	7139.00
958.39	7066.00
958.82	6803.00
959.25	7045.00
959.68	7346.00
960.11	7359.00
960.54	7542.00
960.97	7802.00
961.40	8100.00
961.83	8019.00
962.26	7964.00
962.68	8548.00
963.11	8618.00
963.54	8682.00
963.97	8798.00
964.40	8756.00
964.83	8885.00
965.26	8863.00
965.69	8748.00
966.11	8792.00
966.54	8826.00
966.97	9123.00
967.40	9255.00
967.83	9276.00
968.26	9352.00
968.69	9381.00
969.11	9337.00
969.54	9373.00
969.97	9446.00
970.40	9675.00
970.83	9579.00
971.26	9742.00
971.68	9635.00
972.11	9639.00
972.54	9847.00
972.97	9872.00
973.40	9656.00
973.82	9601.00
974.25	9560.00
974.68	9424.00
975.11	9314.00
975.54	9242.00
975.96	9163.00
976.39	9162.00
976.82	9187.00
977.25	9106.00
977.67	9108.00
978.10	9144.00
978.53	9291.00
978.96	9490.00
979.38	9610.00
979.81	9734.00
980.24	9925.00
980.67	10222.00
981.09	10281.00
981.52	10372.00
981.95	10339.00
982.38	10443.00
982.80	10407.00
983.23	10604.00
983.66	10698.00
984.08	10449.00
984.51	10389.00
984.94	10324.00
985.37	10204.00
985.79	9998.00
986.22	9864.00
986.65	9768.00
987.07	9773.00
987.50	9669.00
987.93	9705.00
988.35	9733.00
988.78	9747.00
989.21	9893.00
989.63	10066.00
990.06	10219.00
990.49	10290.00
990.91	10488.00
991.34	10564.00
991.77	10499.00
992.19	10555.00
992.62	10536.00
993.05	10408.00
993.47	10316.00
993.90	10307.00
994.32	10057.00
994.75	9899.00
995.18	9723.00
995.60	9541.00
996.03	9509.00
996.45	9405.00
996.88	9511.00
997.31	9344.00
997.73	9437.00
998.16	9463.00
998.58	9486.00
999.01	9541.00
999.44	9703.00
999.86	9831.00
1000.29	9759.00
1000.71	9828.00
1001.14	9864.00
1001.56	9833.00
1001.99	9709.00
1002.41	9734.00
1002.84	9427.00
1003.27	9313.00
1003.69	9125.00
1004.12	8995.00
1004.54	8880.00
1004.97	8717.00
1005.39	8680.00
1005.82	8611.00
1006.24	8669.00
1006.67	8579.00
1007.09	8635.00
1007.52	8567.00
1007.94	8637.00
1008.37	8789.00
1008.79	8784.00
1009.22	8762.00
1009.64	8782.00
1010.07	8739.00
1010.49	8839.00
1010.92	8842.00
1011.34	8836.00
1011.77	8771.00
1012.19	8775.00
1012.62	8744.00
1013.04	8512.00
1013.46	8473.00
1013.89	8241.00
1014.31	8150.00
1014.74	8066.00
1015.16	7980.00
1015.59	7971.00
1016.01	8032.00
1016.44	7990.00
1016.86	8967.00
1017.28	8072.00
1017.71	8083.00
1018.13	8273.00
1018.56	8341.00
1018.98	8408.00
1019.40	8350.00
1019.83	8467.00
1020.25	8345.00
1020.68	8410.00
1021.10	8532.00
1021.52	8494.00
1021.95	8679.00
1022.37	8625.00
1022.79	8496.00
1023.22	8563.00
1023.64	8354.00
1024.07	8272.00
1024.49	8283.00
1024.91	8091.00
1025.34	8045.00
1025.76	8073.00
1026.18	7923.00
1026.61	7888.00
1027.03	7971.00
1027.45	7908.00
1027.88	7876.00
1028.30	8131.00
1028.72	8106.00
1029.15	8123.00
1029.57	8160.00
1029.99	8134.00
1030.41	8100.00
1030.84	8112.00
1031.26	8063.00
1031.68	7994.00
1032.11	7921.00
1032.53	7881.00
1032.95	7778.00
1033.37	7701.00
1033.80	7657.00
1034.22	7401.00
1034.64	7443.00
1035.06	7405.00
1035.49	7212.00
1035.91	7141.00
1036.33	7055.00
1036.75	7092.00
1037.18	7115.00
1037.60	7059.00
1038.02	7082.00
1038.44	7093.00
1038.87	7021.00
1039.29	7039.00
1039.71	7094.00
1040.13	7070.00
1040.55	7198.00
1040.98	7163.00
1041.40	7042.00
1041.82	6980.00
1042.24	6899.00
1042.66	6909.00
1043.09	6732.00
1043.51	6702.00
1043.93	6645.00
1044.35	6543.00
1044.77	6490.00
1045.20	6380.00
1045.62	6285.00
1046.04	6291.00
1046.46	6256.00
1046.88	6181.00
1047.30	6241.00
1047.72	6196.00
1048.15	6176.00
1048.57	6041.00
1048.99	6079.00
1049.41	6089.00
1049.83	6044.00
1050.25	6161.00
1050.67	6100.00
1051.09	6023.00
1051.52	5978.00
1051.94	5978.00
1052.36	6042.00
1052.78	5957.00
1053.20	5899.00
1053.62	5856.00
1054.04	5863.00
1054.46	5800.00
1054.88	5805.00
1055.30	5759.00
1055.72	5700.00
1056.14	5669.00
1056.57	5734.00
1056.99	5489.00
1057.41	5468.00
1057.83	5352.00
1058.25	5387.00
1058.67	5365.00
1059.09	5231.00
1059.51	5275.00
1059.93	5233.00
1060.35	5141.00
1060.77	5229.00
1061.19	5170.00
1061.61	5082.00
1062.03	5129.00
1062.45	5053.00
1062.87	5179.00
1063.29	5165.00
1063.71	5116.00
1064.13	5021.00
1064.55	4984.00
1064.97	5029.00
1065.39	4935.00
1065.81	4955.00
1066.23	4912.00
1066.65	4916.00
1067.07	4893.00
1067.49	4798.00
1067.91	4737.00
1068.33	4798.00
1068.75	4793.00
1069.17	4828.00
1069.59	4745.00
1070.00	4651.00
1070.42	4681.00
1070.84	4640.00
1071.26	4578.00
1071.68	4574.00
1072.10	4607.00
1072.52	4564.00
1072.94	4528.00
1073.36	4536.00
1073.78	4464.00
1074.20	4491.00
1074.62	4465.00
1075.03	4504.00
1075.45	4485.00
1075.87	4528.00
1076.29	4452.00
1076.71	4468.00
1077.13	4523.00
1077.55	4392.00
1077.97	4391.00
1078.38	4338.00
1078.80	4355.00
1079.22	4318.00
1079.64	4308.00
1080.06	4222.00
1080.48	4277.00
1080.89	4222.00
1081.31	4248.00
1081.73	4170.00
1082.15	4171.00
1082.57	4207.00
1082.99	4126.00
1083.40	4100.00
1083.82	4162.00
1084.24	4080.00
1084.66	4047.00
1085.08	4069.00
1085.49	3990.00
1085.91	4106.00
1086.33	5005.00
1086.75	4066.00
1087.17	4020.00
1087.58	3996.00
1088.00	4042.00
1088.42	4039.00
1088.84	4016.00
1089.25	3902.00
1089.67	3921.00
1090.09	3940.00
1090.51	3862.00
1090.92	3897.00
1091.34	3823.00
1091.76	3842.00
1092.18	3721.00
1092.59	3802.00
1093.01	3757.00
1093.43	3763.00
1093.84	3743.00
1094.26	3735.00
1094.68	3730.00
1095.10	3649.00
1095.51	3681.00
1095.93	3683.00
1096.35	3679.00
1096.76	3680.00
1097.18	3710.00
1097.60	3659.00
1098.01	3612.00
1098.43	3582.00
1098.85	3590.00
1099.26	3564.00
1099.68	3569.00
1100.10	3503.00
1100.51	3480.00
1100.93	3487.00
1101.35	3493.00
1101.76	3501.00
1102.18	3873.00
1102.60	3499.00
1103.01	3384.00
1103.43	3446.00
1103.84	3416.00
1104.26	3382.00
1104.68	3393.00
1105.09	3366.00
1105.51	3323.00
1105.92	3401.00
1106.34	3313.00
1106.76	3369.00
1107.17	3362.00
1107.59	3329.00
1108.00	3223.00
1108.42	3295.00
1108.83	3209.00
1109.25	3238.00
1109.67	3199.00
1110.08	3248.00
1110.50	3189.00
1110.91	3197.00
1111.33	3166.00
1111.74	3156.00
1112.16	3170.00
1112.57	3140.00
1112.99	3137.00
1113.41	3114.00
1113.82	3089.00
1114.24	3109.00
1114.65	3039.00
1115.07	2958.00
1115.48	2927.00
1115.90	2183.00
1116.31	2203.00
1116.73	2200.00
1117.14	2195.00
>>>>>End Processed Spectral Data<<<<<
