SpectraSuite Data File
++++++++++++++++++++++++++++++++++++
Date: Tue May 29 13:10:33 EEST 2018
User: CanSEE
Dark Spectrum Present: No
Reference Spectrum Present: No
Number of Sampled Component Spectra: 1
Spectrometers: MAYP11278
Integration Time (usec): 230000 (MAYP11278)
Spectra Averaged: 1 (MAYP11278)
Boxcar Smoothing: 0 (MAYP11278)
Correct for Electrical Dark: No (MAYP11278)
Strobe/Lamp Enabled: No (MAYP11278)
Correct for Detector Non-linearity: No (MAYP11278)
Correct for Stray Light: No (MAYP11278)
Number of Pixels in Processed Spectrum: 2068
>>>>>Begin Processed Spectral Data<<<<<
187.82	2344.00
188.30	2234.00
188.78	2208.00
189.26	2208.00
189.73	3203.00
190.21	3299.00
190.69	3395.00
191.17	3397.00
191.64	3445.00
192.12	3432.00
192.60	3385.00
193.07	3348.00
193.55	3443.00
194.03	3393.00
194.51	3399.00
194.98	3415.00
195.46	3440.00
195.94	3387.00
196.42	3413.00
196.89	3452.00
197.37	3391.00
197.85	3352.00
198.32	3403.00
198.80	3379.00
199.28	3407.00
199.76	3442.00
200.23	3448.00
200.71	3384.00
201.19	3417.00
201.66	3423.00
202.14	3419.00
202.62	3375.00
203.09	3455.00
203.57	3361.00
204.05	3457.00
204.53	3469.00
205.00	3393.00
205.48	3403.00
205.96	3473.00
206.43	3423.00
206.91	3444.00
207.39	3499.00
207.86	3433.00
208.34	3472.00
208.82	3420.00
209.29	3474.00
209.77	3409.00
210.25	3458.00
210.72	3428.00
211.20	3465.00
211.68	3430.00
212.15	3394.00
212.63	3483.00
213.11	3452.00
213.58	3430.00
214.06	3495.00
214.53	3446.00
215.01	3496.00
215.49	3411.00
215.96	3500.00
216.44	3473.00
216.92	3449.00
217.39	3403.00
217.87	3415.00
218.35	3461.00
218.82	3384.00
219.30	3385.00
219.77	3395.00
220.25	3414.00
220.73	3508.00
221.20	3418.00
221.68	3510.00
222.15	3381.00
222.63	3466.00
223.11	3424.00
223.58	3484.00
224.06	3424.00
224.53	3453.00
225.01	3382.00
225.49	3437.00
225.96	3415.00
226.44	3431.00
226.91	3479.00
227.39	3463.00
227.87	3447.00
228.34	3480.00
228.82	3449.00
229.29	3441.00
229.77	3434.00
230.24	3420.00
230.72	3471.00
231.20	3484.00
231.67	3401.00
232.15	3443.00
232.62	3402.00
233.10	3437.00
233.57	3447.00
234.05	3584.00
234.53	3419.00
235.00	3411.00
235.48	3447.00
235.95	3447.00
236.43	3473.00
236.90	3512.00
237.38	3419.00
237.85	3435.00
238.33	3456.00
238.80	3447.00
239.28	3461.00
239.75	3395.00
240.23	3442.00
240.71	3498.00
241.18	3449.00
241.66	3441.00
242.13	3485.00
242.61	3497.00
243.08	3417.00
243.56	3435.00
244.03	3463.00
244.51	3516.00
244.98	3448.00
245.46	3473.00
245.93	5175.00
246.41	3361.00
246.88	3462.00
247.36	3463.00
247.83	3413.00
248.31	3459.00
248.78	3395.00
249.26	3432.00
249.73	3468.00
250.21	3431.00
250.68	3461.00
251.16	3451.00
251.63	3583.00
252.10	3515.00
252.58	3425.00
253.05	3508.00
253.53	3433.00
254.00	3448.00
254.48	3429.00
254.95	3453.00
255.43	3503.00
255.90	3460.00
256.38	3476.00
256.85	3504.00
257.33	3493.00
257.80	3564.00
258.27	3493.00
258.75	3425.00
259.22	3460.00
259.70	3457.00
260.17	3520.00
260.65	3430.00
261.12	3397.00
261.59	3515.00
262.07	3456.00
262.54	3500.00
263.02	3447.00
263.49	3405.00
263.97	3498.00
264.44	3485.00
264.91	3443.00
265.39	3474.00
265.86	3496.00
266.34	3477.00
266.81	3458.00
267.28	3433.00
267.76	3453.00
268.23	3472.00
268.71	3351.00
269.18	3379.00
269.65	3362.00
270.13	3481.00
270.60	3487.00
271.08	3465.00
271.55	3475.00
272.02	3410.00
272.50	3397.00
272.97	3387.00
273.44	3409.00
273.92	3583.00
274.39	3460.00
274.87	3495.00
275.34	3442.00
275.81	3425.00
276.29	3454.00
276.76	3403.00
277.23	3333.00
277.71	3396.00
278.18	3331.00
278.65	3511.00
279.13	3393.00
279.60	3393.00
280.07	3722.00
280.55	3668.00
281.02	3727.00
281.50	3520.00
281.97	3580.00
282.44	3489.00
282.91	3504.00
283.39	3465.00
283.86	3457.00
284.33	3432.00
284.81	3537.00
285.28	3490.00
285.75	3507.00
286.23	3533.00
286.70	3401.00
287.17	3478.00
287.65	3542.00
288.12	3461.00
288.59	3513.00
289.07	3380.00
289.54	3536.00
290.01	3439.00
290.48	3468.00
290.96	3452.00
291.43	3502.00
291.90	3521.00
292.38	3429.00
292.85	3514.00
293.32	3447.00
293.79	3497.00
294.27	3475.00
294.74	3439.00
295.21	3465.00
295.69	3476.00
296.16	3574.00
296.63	3532.00
297.10	3494.00
297.58	3535.00
298.05	3514.00
298.52	3475.00
298.99	3539.00
299.47	3457.00
299.94	3469.00
300.41	3418.00
300.88	3521.00
301.36	3491.00
301.83	3482.00
302.30	3438.00
302.77	3494.00
303.25	3515.00
303.72	3407.00
304.19	3445.00
304.66	3454.00
305.13	3449.00
305.61	3516.00
306.08	3483.00
306.55	3481.00
307.02	3473.00
307.49	3456.00
307.97	3523.00
308.44	3464.00
308.91	3471.00
309.38	3546.00
309.86	3495.00
310.33	3485.00
310.80	3504.00
311.27	3452.00
311.74	3526.00
312.21	3480.00
312.69	3567.00
313.16	3465.00
313.63	3480.00
314.10	3506.00
314.57	3478.00
315.05	3432.00
315.52	3546.00
315.99	3547.00
316.46	3481.00
316.93	3535.00
317.40	3487.00
317.88	3643.00
318.35	3480.00
318.82	3479.00
319.29	3466.00
319.76	3548.00
320.23	3605.00
320.70	3535.00
321.18	3480.00
321.65	3432.00
322.12	3415.00
322.59	3569.00
323.06	3515.00
323.53	3611.00
324.00	3482.00
324.48	3464.00
324.95	3515.00
325.42	3497.00
325.89	3471.00
326.36	3496.00
326.83	3546.00
327.30	3516.00
327.77	3550.00
328.24	3562.00
328.72	3483.00
329.19	3517.00
329.66	3500.00
330.13	3471.00
330.60	3548.00
331.07	3527.00
331.54	3615.00
332.01	3475.00
332.48	3597.00
332.95	3525.00
333.43	3502.00
333.90	3598.00
334.37	3547.00
334.84	3563.00
335.31	3655.00
335.78	3518.00
336.25	3514.00
336.72	3510.00
337.19	3519.00
337.66	3505.00
338.13	3507.00
338.60	3589.00
339.07	3535.00
339.54	3519.00
340.01	3519.00
340.49	3478.00
340.96	3544.00
341.43	3553.00
341.90	3476.00
342.37	3529.00
342.84	3551.00
343.31	3524.00
343.78	3454.00
344.25	3491.00
344.72	3531.00
345.19	3503.00
345.66	3504.00
346.13	3515.00
346.60	3469.00
347.07	3560.00
347.54	3434.00
348.01	3581.00
348.48	3539.00
348.95	3467.00
349.42	3530.00
349.89	3544.00
350.36	3487.00
350.83	3456.00
351.30	3497.00
351.77	3619.00
352.24	3533.00
352.71	3517.00
353.18	3502.00
353.65	3533.00
354.12	3550.00
354.59	3556.00
355.06	3529.00
355.53	3591.00
356.00	3507.00
356.47	3617.00
356.94	3452.00
357.41	3656.00
357.88	3531.00
358.35	3457.00
358.82	3481.00
359.28	3493.00
359.75	3495.00
360.22	3552.00
360.69	3583.00
361.16	3547.00
361.63	3515.00
362.10	3527.00
362.57	3553.00
363.04	3516.00
363.51	3588.00
363.98	3567.00
364.45	3451.00
364.92	3582.00
365.39	3505.00
365.86	3459.00
366.32	3531.00
366.79	3524.00
367.26	4424.00
367.73	3547.00
368.20	3449.00
368.67	3566.00
369.14	3468.00
369.61	3582.00
370.08	3512.00
370.55	3475.00
371.02	4408.00
371.48	3500.00
371.95	3489.00
372.42	3467.00
372.89	3516.00
373.36	3537.00
373.83	3486.00
374.30	3458.00
374.77	3537.00
375.23	3449.00
375.70	3606.00
376.17	3501.00
376.64	3465.00
377.11	3520.00
377.58	3526.00
378.05	3522.00
378.51	3534.00
378.98	3549.00
379.45	3527.00
379.92	3520.00
380.39	3668.00
380.86	3504.00
381.33	3597.00
381.79	3578.00
382.26	3489.00
382.73	3544.00
383.20	3509.00
383.67	3553.00
384.14	3511.00
384.60	3722.00
385.07	3502.00
385.54	3480.00
386.01	3521.00
386.48	3609.00
386.94	3458.00
387.41	3477.00
387.88	3587.00
388.35	3525.00
388.82	3551.00
389.28	3497.00
389.75	3567.00
390.22	3544.00
390.69	3515.00
391.16	3546.00
391.62	3535.00
392.09	3549.00
392.56	3503.00
393.03	3495.00
393.50	3577.00
393.96	3543.00
394.43	3564.00
394.90	3479.00
395.37	3571.00
395.83	3679.00
396.30	3479.00
396.77	3509.00
397.24	3512.00
397.70	3490.00
398.17	3508.00
398.64	3490.00
399.11	3485.00
399.57	3527.00
400.04	3437.00
400.51	3559.00
400.98	3525.00
401.44	3541.00
401.91	3523.00
402.38	3543.00
402.84	3512.00
403.31	3590.00
403.78	3534.00
404.25	3601.00
404.71	3593.00
405.18	3547.00
405.65	3514.00
406.12	3570.00
406.58	3523.00
407.05	3617.00
407.52	3559.00
407.98	4089.00
408.45	3542.00
408.92	3489.00
409.38	3591.00
409.85	3515.00
410.32	3598.00
410.78	3517.00
411.25	3603.00
411.72	3545.00
412.18	3491.00
412.65	3584.00
413.12	3520.00
413.59	3586.00
414.05	3535.00
414.52	3607.00
414.98	3562.00
415.45	3631.00
415.92	3576.00
416.38	3577.00
416.85	3668.00
417.32	3556.00
417.78	3591.00
418.25	3592.00
418.72	3582.00
419.18	3586.00
419.65	3528.00
420.12	3625.00
420.58	3548.00
421.05	3549.00
421.51	3547.00
421.98	3637.00
422.45	3520.00
422.91	3567.00
423.38	3615.00
423.85	3582.00
424.31	3580.00
424.78	3612.00
425.24	3570.00
425.71	3704.00
426.18	3590.00
426.64	3667.00
427.11	3644.00
427.57	3635.00
428.04	3611.00
428.51	3691.00
428.97	3599.00
429.44	3550.00
429.90	3629.00
430.37	3707.00
430.83	3523.00
431.30	3586.00
431.77	3665.00
432.23	3692.00
432.70	3631.00
433.16	3603.00
433.63	3653.00
434.09	3603.00
434.56	3689.00
435.03	3612.00
435.49	3720.00
435.96	3677.00
436.42	3616.00
436.89	3648.00
437.35	3662.00
437.82	3645.00
438.28	3573.00
438.75	3596.00
439.21	3842.00
439.68	3667.00
440.14	3661.00
440.61	3699.00
441.07	3627.00
441.54	3664.00
442.00	3790.00
442.47	3660.00
442.94	3699.00
443.40	3699.00
443.87	3674.00
444.33	3774.00
444.80	3659.00
445.26	3687.00
445.73	3661.00
446.19	3716.00
446.65	3707.00
447.12	3707.00
447.58	3661.00
448.05	3671.00
448.51	3698.00
448.98	3755.00
449.44	3682.00
449.91	3677.00
450.37	3685.00
450.84	3738.00
451.30	3714.00
451.77	3784.00
452.23	3661.00
452.70	3765.00
453.16	3635.00
453.62	3691.00
454.09	3717.00
454.55	3726.00
455.02	3685.00
455.48	3711.00
455.95	3765.00
456.41	3665.00
456.88	3757.00
457.34	3692.00
457.80	3675.00
458.27	3660.00
458.73	3683.00
459.20	3668.00
459.66	3750.00
460.13	3624.00
460.59	3611.00
461.05	3695.00
461.52	3764.00
461.98	3685.00
462.45	3622.00
462.91	3699.00
463.37	3643.00
463.84	3687.00
464.30	3629.00
464.76	3561.00
465.23	3582.00
465.69	3702.00
466.16	3613.00
466.62	3669.00
467.08	3612.00
467.55	3572.00
468.01	3603.00
468.48	3624.00
468.94	3607.00
469.40	3563.00
469.87	3611.00
470.33	3632.00
470.79	3547.00
471.26	3585.00
471.72	3563.00
472.18	3589.00
472.65	3601.00
473.11	3651.00
473.57	3608.00
474.04	3601.00
474.50	3610.00
474.96	3506.00
475.43	3593.00
475.89	3591.00
476.35	3567.00
476.82	3599.00
477.28	3603.00
477.74	3621.00
478.21	3586.00
478.67	3662.00
479.13	3567.00
479.59	3681.00
480.06	3565.00
480.52	3591.00
480.98	3535.00
481.45	3559.00
481.91	3597.00
482.37	3556.00
482.84	3571.00
483.30	3531.00
483.76	3579.00
484.22	3630.00
484.69	3538.00
485.15	3543.00
485.61	3466.00
486.07	3525.00
486.54	3477.00
487.00	3567.00
487.46	3488.00
487.92	3527.00
488.39	3529.00
488.85	3579.00
489.31	3593.00
489.77	3623.00
490.24	3557.00
490.70	3548.00
491.16	3503.00
491.62	3552.00
492.09	3490.00
492.55	3628.00
493.01	3596.00
493.47	3622.00
493.94	3601.00
494.40	3584.00
494.86	3572.00
495.32	3578.00
495.78	3547.00
496.25	3600.00
496.71	3612.00
497.17	3680.00
497.63	3660.00
498.09	3577.00
498.56	3648.00
499.02	3634.00
499.48	3699.00
499.94	3605.00
500.40	3615.00
500.87	3621.00
501.33	3617.00
501.79	3663.00
502.25	3671.00
502.71	3973.00
503.17	3669.00
503.64	3677.00
504.10	3647.00
504.56	3729.00
505.02	3731.00
505.48	3721.00
505.94	3750.00
506.40	3769.00
506.87	3719.00
507.33	3800.00
507.79	3813.00
508.25	3767.00
508.71	3756.00
509.17	3776.00
509.63	3835.00
510.10	3845.00
510.56	3848.00
511.02	3974.00
511.48	3957.00
511.94	3908.00
512.40	3883.00
512.86	3929.00
513.32	3985.00
513.78	3877.00
514.25	4023.00
514.71	4638.00
515.17	4021.00
515.63	4058.00
516.09	4076.00
516.55	4019.00
517.01	4144.00
517.47	4086.00
517.93	4088.00
518.39	4282.00
518.85	4196.00
519.32	4255.00
519.78	4238.00
520.24	4248.00
520.70	4359.00
521.16	4451.00
521.62	4445.00
522.08	4400.00
522.54	4469.00
523.00	4525.00
523.46	4597.00
523.92	4607.00
524.38	4725.00
524.84	4661.00
525.30	4703.00
525.76	4732.00
526.22	4653.00
526.68	4622.00
527.14	4723.00
527.60	4758.00
528.06	4884.00
528.52	4922.00
528.98	4892.00
529.44	4902.00
529.90	4951.00
530.36	5030.00
530.82	4962.00
531.28	5116.00
531.74	4973.00
532.20	5065.00
532.66	4965.00
533.12	5041.00
533.58	5083.00
534.04	5047.00
534.50	5161.00
534.96	5151.00
535.42	5274.00
535.88	5194.00
536.34	5215.00
536.80	5085.00
537.26	5267.00
537.72	5233.00
538.18	5264.00
538.64	5357.00
539.10	5227.00
539.56	5409.00
540.02	5069.00
540.48	5280.00
540.94	5228.00
541.40	5237.00
541.86	5351.00
542.32	5299.00
542.78	5277.00
543.24	5449.00
543.69	5389.00
544.15	5459.00
544.61	5427.00
545.07	5324.00
545.53	5378.00
545.99	5475.00
546.45	5459.00
546.91	5395.00
547.37	5409.00
547.83	5401.00
548.29	5397.00
548.74	5491.00
549.20	5485.00
549.66	5599.00
550.12	5410.00
550.58	5448.00
551.04	5482.00
551.50	5515.00
551.96	5614.00
552.42	5481.00
552.87	5431.00
553.33	5573.00
553.79	5488.00
554.25	5478.00
554.71	5514.00
555.17	5524.00
555.63	5606.00
556.08	5501.00
556.54	5488.00
557.00	5377.00
557.46	5439.00
557.92	5529.00
558.38	5352.00
558.83	5320.00
559.29	5337.00
559.75	5415.00
560.21	5328.00
560.67	5463.00
561.13	5367.00
561.58	5404.00
562.04	5327.00
562.50	5353.00
562.96	5417.00
563.42	5363.00
563.87	5266.00
564.33	5375.00
564.79	5340.00
565.25	5186.00
565.71	5181.00
566.16	5224.00
566.62	5181.00
567.08	5190.00
567.54	5210.00
568.00	5130.00
568.45	5101.00
568.91	5031.00
569.37	5088.00
569.83	5112.00
570.28	4965.00
570.74	4983.00
571.20	5012.00
571.66	4970.00
572.11	4941.00
572.57	4977.00
573.03	4938.00
573.49	4885.00
573.94	4919.00
574.40	4907.00
574.86	4845.00
575.32	4760.00
575.77	4805.00
576.23	4716.00
576.69	4858.00
577.15	4697.00
577.60	4745.00
578.06	4699.00
578.52	4783.00
578.97	4735.00
579.43	4695.00
579.89	4738.00
580.34	4703.00
580.80	4706.00
581.26	4711.00
581.72	4718.00
582.17	4669.00
582.63	4646.00
583.09	4676.00
583.54	4649.00
584.00	4637.00
584.46	4657.00
584.91	4595.00
585.37	4697.00
585.83	4531.00
586.28	4597.00
586.74	4595.00
587.20	4570.00
587.65	4655.00
588.11	4462.00
588.57	4448.00
589.02	4368.00
589.48	4349.00
589.94	4449.00
590.39	4481.00
590.85	4469.00
591.30	4484.00
591.76	4507.00
592.22	4428.00
592.67	4441.00
593.13	4451.00
593.59	4507.00
594.04	4406.00
594.50	4433.00
594.95	4529.00
595.41	4406.00
595.87	4433.00
596.32	4500.00
596.78	4490.00
597.23	4523.00
597.69	4411.00
598.15	4365.00
598.60	4383.00
599.06	4517.00
599.51	4401.00
599.97	4449.00
600.43	4484.00
600.88	4382.00
601.34	4433.00
601.79	4342.00
602.25	4502.00
602.70	4349.00
603.16	4406.00
603.61	4354.00
604.07	4345.00
604.53	4433.00
604.98	4372.00
605.44	4372.00
605.89	4357.00
606.35	4341.00
606.80	4372.00
607.26	4304.00
607.71	4308.00
608.17	4341.00
608.62	4307.00
609.08	4431.00
609.53	4331.00
609.99	4252.00
610.44	4204.00
610.90	4269.00
611.35	4190.00
611.81	4358.00
612.26	4229.00
612.72	4209.00
613.17	4300.00
613.63	4179.00
614.08	4175.00
614.54	4093.00
614.99	4199.00
615.45	4135.00
615.90	4135.00
616.36	4053.00
616.81	4116.00
617.27	4160.00
617.72	4221.00
618.18	4092.00
618.63	4119.00
619.09	4100.00
619.54	4147.00
619.99	4101.00
620.45	4192.00
620.90	4187.00
621.36	4087.00
621.81	4112.00
622.27	4140.00
622.72	4132.00
623.18	4037.00
623.63	4027.00
624.08	4151.00
624.54	4024.00
624.99	4037.00
625.45	4051.00
625.90	4029.00
626.35	4079.00
626.81	4102.00
627.26	4020.00
627.72	4083.00
628.17	4082.00
628.62	4036.00
629.08	4077.00
629.53	4013.00
629.99	3957.00
630.44	4012.00
630.89	4055.00
631.35	4046.00
631.80	4040.00
632.26	4074.00
632.71	4012.00
633.16	4000.00
633.62	4014.00
634.07	4009.00
634.52	4004.00
634.98	4003.00
635.43	3975.00
635.88	3969.00
636.34	4023.00
636.79	4008.00
637.24	3995.00
637.70	4025.00
638.15	3997.00
638.60	3940.00
639.06	3953.00
639.51	3947.00
639.96	3929.00
640.42	3974.00
640.87	3997.00
641.32	3865.00
641.78	3943.00
642.23	3914.00
642.68	3834.00
643.14	3869.00
643.59	3892.00
644.04	3837.00
644.49	3810.00
644.95	3786.00
645.40	3781.00
645.85	3819.00
646.31	3769.00
646.76	3782.00
647.21	3790.00
647.66	3755.00
648.12	3754.00
648.57	3723.00
649.02	3833.00
649.47	3767.00
649.93	3979.00
650.38	3687.00
650.83	3731.00
651.28	3715.00
651.74	3769.00
652.19	3656.00
652.64	3741.00
653.09	3677.00
653.55	3699.00
654.00	3731.00
654.45	3747.00
654.90	3682.00
655.35	3633.00
655.81	3680.00
656.26	3596.00
656.71	3603.00
657.16	3695.00
657.62	3695.00
658.07	3656.00
658.52	3669.00
658.97	3619.00
659.42	3825.00
659.88	3623.00
660.33	3684.00
660.78	3625.00
661.23	3603.00
661.68	3621.00
662.13	3621.00
662.59	3558.00
663.04	3610.00
663.49	3561.00
663.94	3551.00
664.39	3557.00
664.84	3535.00
665.30	3569.00
665.75	3514.00
666.20	3599.00
666.65	3555.00
667.10	3687.00
667.55	3605.00
668.00	3507.00
668.46	3575.00
668.91	3512.00
669.36	3646.00
669.81	3417.00
670.26	3540.00
670.71	3576.00
671.16	3531.00
671.61	3574.00
672.06	3566.00
672.52	3506.00
672.97	3505.00
673.42	3543.00
673.87	3684.00
674.32	3517.00
674.77	3502.00
675.22	3472.00
675.67	3464.00
676.12	3545.00
676.57	3470.00
677.02	3470.00
677.47	3460.00
677.93	3598.00
678.38	3477.00
678.83	3489.00
679.28	3503.00
679.73	3493.00
680.18	3483.00
680.63	3519.00
681.08	3443.00
681.53	3427.00
681.98	3507.00
682.43	3516.00
682.88	3562.00
683.33	3537.00
683.78	3548.00
684.23	3603.00
684.68	3554.00
685.13	3583.00
685.58	3581.00
686.03	3578.00
686.48	3503.00
686.93	3515.00
687.38	3519.00
687.83	3540.00
688.28	3630.00
688.73	3736.00
689.18	3670.00
689.63	3610.00
690.08	3643.00
690.53	3725.00
690.98	3694.00
691.43	3800.00
691.88	3821.00
692.33	3886.00
692.78	3926.00
693.23	4020.00
693.68	4041.00
694.13	4015.00
694.58	4135.00
695.03	4353.00
695.48	4265.00
695.93	4323.00
696.38	4449.00
696.83	4511.00
697.28	4517.00
697.72	4608.00
698.17	4589.00
698.62	4697.00
699.07	4773.00
699.52	4784.00
699.97	4871.00
700.42	4948.00
700.87	5072.00
701.32	5247.00
701.77	5087.00
702.22	5297.00
702.67	5275.00
703.11	5391.00
703.56	5474.00
704.01	5574.00
704.46	5627.00
704.91	5857.00
705.36	5904.00
705.81	5927.00
706.26	5933.00
706.70	6149.00
707.15	6151.00
707.60	6235.00
708.05	6280.00
708.50	6403.00
708.95	6562.00
709.40	6491.00
709.84	6646.00
710.29	6658.00
710.74	6737.00
711.19	6857.00
711.64	6856.00
712.09	6987.00
712.53	6947.00
712.98	7227.00
713.43	7123.00
713.88	7265.00
714.33	7422.00
714.78	7274.00
715.22	7230.00
715.67	7455.00
716.12	7283.00
716.57	7177.00
717.02	6880.00
717.46	6818.00
717.91	6903.00
718.36	6870.00
718.81	6757.00
719.26	6831.00
719.70	6883.00
720.15	7003.00
720.60	7187.00
721.05	7665.00
721.49	7814.00
721.94	8067.00
722.39	7978.00
722.84	7817.00
723.28	7713.00
723.73	7700.00
724.18	7597.00
724.63	7851.00
725.07	7779.00
725.52	8001.00
725.97	8064.00
726.42	8172.00
726.86	8263.00
727.31	8141.00
727.76	8203.00
728.21	8421.00
728.65	8351.00
729.10	8339.00
729.55	8509.00
729.99	8707.00
730.44	8671.00
730.89	8687.00
731.33	9013.00
731.78	9067.00
732.23	9315.00
732.68	9480.00
733.12	9608.00
733.57	9784.00
734.02	9798.00
734.46	10048.00
734.91	10067.00
735.36	10037.00
735.80	10188.00
736.25	10174.00
736.70	10291.00
737.14	10291.00
737.59	10345.00
738.04	10484.00
738.48	10408.00
738.93	10373.00
739.37	10529.00
739.82	10644.00
740.27	10711.00
740.71	10669.00
741.16	10714.00
741.61	10697.00
742.05	10813.00
742.50	10905.00
742.94	11001.00
743.39	10887.00
743.84	10988.00
744.28	10990.00
744.73	11049.00
745.18	11149.00
745.62	11196.00
746.07	11275.00
746.51	11071.00
746.96	11159.00
747.40	11199.00
747.85	11190.00
748.30	11076.00
748.74	11122.00
749.19	11111.00
749.63	11185.00
750.08	11264.00
750.52	11287.00
750.97	11186.00
751.42	11229.00
751.86	11311.00
752.31	11280.00
752.75	11180.00
753.20	11159.00
753.64	11191.00
754.09	11153.00
754.53	11198.00
754.98	11149.00
755.42	11176.00
755.87	11173.00
756.31	11297.00
756.76	11079.00
757.20	11065.00
757.65	10898.00
758.09	10809.00
758.54	10501.00
758.98	9561.00
759.43	8013.00
759.87	6464.00
760.32	5528.00
760.76	5392.00
761.21	6133.00
761.65	6982.00
762.10	7179.00
762.54	6885.00
762.99	6692.00
763.43	6800.00
763.88	7080.00
764.32	7519.00
764.77	7894.00
765.21	8394.00
765.66	8753.00
766.10	9047.00
766.54	9493.00
766.99	9788.00
767.43	10047.00
767.88	10319.00
768.32	10522.00
768.77	10549.00
769.21	10853.00
769.66	10802.00
770.10	10918.00
770.54	10995.00
770.99	10973.00
771.43	11021.00
771.88	11089.00
772.32	11009.00
772.76	10914.00
773.21	11055.00
773.65	10934.00
774.10	10757.00
774.54	10940.00
774.98	10945.00
775.43	11071.00
775.87	11067.00
776.31	11196.00
776.76	11014.00
777.20	10925.00
777.65	10934.00
778.09	10966.00
778.53	10807.00
778.98	10888.00
779.42	10986.00
779.86	10941.00
780.31	10771.00
780.75	10914.00
781.19	10991.00
781.64	10938.00
782.08	10922.00
782.52	10882.00
782.97	10968.00
783.41	10824.00
783.85	10718.00
784.30	10715.00
784.74	10723.00
785.18	10573.00
785.63	10581.00
786.07	10687.00
786.51	10703.00
786.95	10703.00
787.40	10626.00
787.84	10517.00
788.28	10531.00
788.73	10559.00
789.17	10413.00
789.61	10188.00
790.05	10177.00
790.50	10209.00
790.94	10155.00
791.38	10242.00
791.82	10285.00
792.27	10238.00
792.71	10283.00
793.15	10514.00
793.59	10326.00
794.04	10209.00
794.48	10278.00
794.92	10041.00
795.36	9952.00
795.81	10025.00
796.25	9977.00
796.69	9933.00
797.13	10014.00
797.57	10095.00
798.02	10169.00
798.46	10238.00
798.90	10083.00
799.34	9998.00
799.79	10073.00
800.23	9909.00
800.67	9805.00
801.11	9799.00
801.55	9696.00
801.99	9719.00
802.44	9740.00
802.88	9860.00
803.32	9871.00
803.76	9920.00
804.20	9818.00
804.64	9947.00
805.09	9961.00
805.53	10023.00
805.97	9885.00
806.41	9761.00
806.85	9722.00
807.29	9591.00
807.74	9579.00
808.18	9576.00
808.62	9569.00
809.06	9487.00
809.50	9533.00
809.94	9567.00
810.38	9677.00
810.82	9491.00
811.27	9611.00
811.71	9483.00
812.15	9190.00
812.59	9101.00
813.03	8913.00
813.47	8721.00
813.91	8502.00
814.35	8449.00
814.79	8389.00
815.23	8186.00
815.67	8266.00
816.12	8215.00
816.56	8111.00
817.00	8257.00
817.44	8371.00
817.88	8363.00
818.32	8242.00
818.76	8267.00
819.20	8279.00
819.64	8291.00
820.08	8404.00
820.52	8581.00
820.96	8626.00
821.40	8489.00
821.84	8309.00
822.28	7942.00
822.72	7995.00
823.16	7947.00
823.60	8205.00
824.04	8585.00
824.48	8684.00
824.92	8819.00
825.36	8692.00
825.80	8544.00
826.24	8636.00
826.68	8453.00
827.12	8488.00
827.56	8350.00
828.00	8428.00
828.44	8380.00
828.88	8517.00
829.32	8594.00
829.76	8543.00
830.20	8778.00
830.64	8596.00
831.08	8613.00
831.52	8510.00
831.96	8433.00
832.40	8211.00
832.84	8395.00
833.28	8447.00
833.72	8553.00
834.16	8726.00
834.60	8847.00
835.04	8846.00
835.48	9017.00
835.91	8882.00
836.35	8964.00
836.79	8859.00
837.23	8854.00
837.67	8683.00
838.11	8750.00
838.55	8786.00
838.99	8820.00
839.43	8876.00
839.87	8948.00
840.30	9000.00
840.74	9099.00
841.18	9094.00
841.62	9141.00
842.06	9158.00
842.50	9119.00
842.94	9107.00
843.38	9003.00
843.81	8848.00
844.25	8757.00
844.69	8739.00
845.13	8739.00
845.57	8672.00
846.01	8860.00
846.45	8757.00
846.88	8813.00
847.32	9001.00
847.76	8987.00
848.20	9063.00
848.64	8955.00
849.08	8891.00
849.51	8925.00
849.95	8767.00
850.39	8712.00
850.83	8823.00
851.27	8770.00
851.70	8648.00
852.14	8645.00
852.58	8533.00
853.02	8244.00
853.46	8176.00
853.89	8127.00
854.33	8209.00
854.77	8333.00
855.21	8733.00
855.65	8950.00
856.08	9039.00
856.52	9075.00
856.96	8975.00
857.40	8876.00
857.83	8652.00
858.27	8721.00
858.71	8447.00
859.15	8527.00
859.58	8555.00
860.02	8578.00
860.46	8705.00
860.89	8837.00
861.33	8803.00
861.77	8959.00
862.21	8973.00
862.64	8936.00
863.08	9013.00
863.52	8890.00
863.95	8801.00
864.39	8718.00
864.83	8406.00
865.27	8099.00
865.70	8115.00
866.14	7947.00
866.58	8003.00
867.01	8272.00
867.45	8586.00
867.89	8626.00
868.32	8830.00
868.76	8875.00
869.20	8817.00
869.63	8911.00
870.07	8893.00
870.51	8580.00
870.94	8454.00
871.38	8419.00
871.82	8296.00
872.25	8309.00
872.69	8265.00
873.13	8315.00
873.56	8432.00
874.00	8472.00
874.43	8430.00
874.87	8515.00
875.31	8698.00
875.74	8641.00
876.18	8769.00
876.61	8656.00
877.05	8574.00
877.49	8527.00
877.92	8512.00
878.36	8448.00
878.79	8268.00
879.23	8245.00
879.67	8015.00
880.10	8023.00
880.54	8139.00
880.97	8126.00
881.41	8382.00
881.84	8418.00
882.28	8575.00
882.72	8670.00
883.15	8702.00
883.59	8642.00
884.02	8781.00
884.46	8667.00
884.89	8562.00
885.33	8448.00
885.76	8251.00
886.20	8125.00
886.63	8125.00
887.07	8003.00
887.50	8008.00
887.94	8037.00
888.37	8009.00
888.81	8298.00
889.24	8120.00
889.68	8295.00
890.11	8341.00
890.55	8429.00
890.98	8466.00
891.42	8455.00
891.85	8371.00
892.29	8289.00
892.72	8181.00
893.16	7937.00
893.59	7887.00
894.03	7680.00
894.46	7548.00
894.90	7324.00
895.33	7029.00
895.77	7259.00
896.20	7075.00
896.63	7052.00
897.07	7113.00
897.50	6984.00
897.94	7135.00
898.37	7347.00
898.81	6986.00
899.24	6947.00
899.68	7189.00
900.11	7141.00
900.54	7092.00
900.98	6936.00
901.41	6999.00
901.85	7054.00
902.28	6887.00
902.71	7016.00
903.15	7239.00
903.58	7400.00
904.02	7355.00
904.45	7304.00
904.88	7261.00
905.32	7313.00
905.75	7257.00
906.18	7106.00
906.62	7076.00
907.05	7099.00
907.48	6946.00
907.92	7022.00
908.35	7001.00
908.79	6861.00
909.22	6817.00
909.65	6721.00
910.09	6792.00
910.52	6831.00
910.95	6752.00
911.38	6791.00
911.82	6600.00
912.25	6604.00
912.68	6796.00
913.12	6757.00
913.55	6822.00
913.98	6857.00
914.42	7049.00
914.85	7096.00
915.28	6878.00
915.72	6886.00
916.15	6859.00
916.58	6770.00
917.01	6697.00
917.45	6565.00
917.88	6663.00
918.31	6788.00
918.74	6831.00
919.18	7038.00
919.61	7007.00
920.04	7110.00
920.47	7118.00
920.91	7162.00
921.34	7083.00
921.77	7145.00
922.20	7239.00
922.64	7221.00
923.07	7265.00
923.50	7123.00
923.93	7040.00
924.37	6994.00
924.80	6892.00
925.23	6906.00
925.66	6830.00
926.09	6475.00
926.53	6426.00
926.96	6251.00
927.39	6208.00
927.82	5933.00
928.25	5723.00
928.69	5785.00
929.12	5625.00
929.55	5515.00
929.98	5420.00
930.41	5250.00
930.84	5103.00
931.28	4875.00
931.71	4825.00
932.14	4582.00
932.57	4623.00
933.00	4383.00
933.43	4392.00
933.86	4235.00
934.30	4241.00
934.73	4355.00
935.16	4223.00
935.59	4149.00
936.02	4278.00
936.45	4204.00
936.88	4161.00
937.31	4416.00
937.75	4453.00
938.18	4567.00
938.61	4689.00
939.04	4693.00
939.47	4717.00
939.90	4619.00
940.33	4589.00
940.76	4338.00
941.19	4327.00
941.62	4227.00
942.05	4208.00
942.48	4117.00
942.91	4068.00
943.35	4109.00
943.78	4097.00
944.21	4097.00
944.64	4175.00
945.07	4238.00
945.50	4145.00
945.93	4234.00
946.36	4309.00
946.79	4267.00
947.22	4427.00
947.65	4393.00
948.08	4239.00
948.51	4373.00
948.94	4383.00
949.37	4477.00
949.80	4370.00
950.23	4337.00
950.66	4373.00
951.09	4357.00
951.52	4285.00
951.95	4354.00
952.38	4373.00
952.81	4542.00
953.24	4518.00
953.67	4567.00
954.10	4538.00
954.53	4662.00
954.96	4565.00
955.39	4688.00
955.82	4741.00
956.25	4767.00
956.68	4868.00
957.11	4760.00
957.53	4745.00
957.96	4706.00
958.39	4645.00
958.82	4598.00
959.25	4636.00
959.68	4653.00
960.11	4776.00
960.54	4865.00
960.97	5001.00
961.40	5024.00
961.83	4991.00
962.26	5036.00
962.68	5195.00
963.11	5227.00
963.54	5179.00
963.97	5318.00
964.40	5237.00
964.83	5369.00
965.26	5370.00
965.69	5333.00
966.11	5328.00
966.54	5279.00
966.97	5433.00
967.40	5506.00
967.83	5650.00
968.26	5521.00
968.69	5441.00
969.11	5556.00
969.54	5488.00
969.97	5497.00
970.40	5609.00
970.83	5563.00
971.26	5653.00
971.68	5588.00
972.11	5584.00
972.54	5615.00
972.97	5607.00
973.40	5588.00
973.82	5633.00
974.25	5582.00
974.68	5505.00
975.11	5534.00
975.54	5443.00
975.96	5408.00
976.39	5409.00
976.82	5477.00
977.25	5371.00
977.67	5352.00
978.10	5442.00
978.53	5386.00
978.96	5635.00
979.38	5545.00
979.81	5667.00
980.24	5751.00
980.67	5809.00
981.09	5770.00
981.52	5893.00
981.95	5869.00
982.38	5833.00
982.80	5939.00
983.23	5994.00
983.66	6037.00
984.08	5873.00
984.51	5815.00
984.94	5828.00
985.37	5851.00
985.79	5733.00
986.22	5668.00
986.65	5746.00
987.07	5639.00
987.50	5671.00
987.93	5620.00
988.35	5626.00
988.78	5631.00
989.21	5739.00
989.63	5749.00
990.06	5841.00
990.49	5894.00
990.91	6013.00
991.34	5891.00
991.77	5871.00
992.19	5981.00
992.62	5974.00
993.05	5963.00
993.47	5899.00
993.90	5956.00
994.32	5774.00
994.75	5743.00
995.18	5624.00
995.60	5587.00
996.03	5570.00
996.45	5617.00
996.88	5580.00
997.31	5581.00
997.73	5533.00
998.16	5571.00
998.58	5679.00
999.01	5588.00
999.44	5576.00
999.86	5775.00
1000.29	5697.00
1000.71	5749.00
1001.14	5780.00
1001.56	5782.00
1001.99	5731.00
1002.41	5652.00
1002.84	5619.00
1003.27	5511.00
1003.69	5469.00
1004.12	5430.00
1004.54	5498.00
1004.97	5260.00
1005.39	5285.00
1005.82	5362.00
1006.24	5340.00
1006.67	5260.00
1007.09	5269.00
1007.52	5213.00
1007.94	5269.00
1008.37	5406.00
1008.79	5319.00
1009.22	5351.00
1009.64	5341.00
1010.07	5355.00
1010.49	5377.00
1010.92	5334.00
1011.34	5419.00
1011.77	5310.00
1012.19	5353.00
1012.62	5360.00
1013.04	5198.00
1013.46	5331.00
1013.89	5176.00
1014.31	5117.00
1014.74	5122.00
1015.16	5061.00
1015.59	5028.00
1016.01	5128.00
1016.44	5034.00
1016.86	5892.00
1017.28	5039.00
1017.71	5066.00
1018.13	5193.00
1018.56	5209.00
1018.98	5301.00
1019.40	5203.00
1019.83	5157.00
1020.25	5220.00
1020.68	5233.00
1021.10	5337.00
1021.52	5279.00
1021.95	5475.00
1022.37	5319.00
1022.79	5322.00
1023.22	5261.00
1023.64	5240.00
1024.07	5231.00
1024.49	5216.00
1024.91	5118.00
1025.34	5096.00
1025.76	5171.00
1026.18	5055.00
1026.61	5037.00
1027.03	5068.00
1027.45	5033.00
1027.88	5067.00
1028.30	5148.00
1028.72	5091.00
1029.15	5162.00
1029.57	5128.00
1029.99	5205.00
1030.41	5098.00
1030.84	5146.00
1031.26	5119.00
1031.68	5045.00
1032.11	5120.00
1032.53	5009.00
1032.95	4997.00
1033.37	4932.00
1033.80	5005.00
1034.22	4913.00
1034.64	4945.00
1035.06	4793.00
1035.49	4827.00
1035.91	4777.00
1036.33	4679.00
1036.75	4775.00
1037.18	4789.00
1037.60	4794.00
1038.02	4792.00
1038.44	4862.00
1038.87	4715.00
1039.29	4781.00
1039.71	4827.00
1040.13	4728.00
1040.55	4867.00
1040.98	4827.00
1041.40	4751.00
1041.82	4775.00
1042.24	4717.00
1042.66	4733.00
1043.09	4621.00
1043.51	4615.00
1043.93	4617.00
1044.35	4535.00
1044.77	4531.00
1045.20	4601.00
1045.62	4441.00
1046.04	4538.00
1046.46	4516.00
1046.88	4358.00
1047.30	4517.00
1047.72	4471.00
1048.15	4441.00
1048.57	4396.00
1048.99	4417.00
1049.41	4386.00
1049.83	4422.00
1050.25	4490.00
1050.67	4402.00
1051.09	4373.00
1051.52	4439.00
1051.94	4307.00
1052.36	4363.00
1052.78	4282.00
1053.20	4328.00
1053.62	4311.00
1054.04	4375.00
1054.46	4294.00
1054.88	4384.00
1055.30	4311.00
1055.72	4330.00
1056.14	4260.00
1056.57	4396.00
1056.99	4172.00
1057.41	4139.00
1057.83	4209.00
1058.25	4138.00
1058.67	4121.00
1059.09	4113.00
1059.51	4153.00
1059.93	4072.00
1060.35	4060.00
1060.77	4083.00
1061.19	4164.00
1061.61	4101.00
1062.03	4115.00
1062.45	4014.00
1062.87	4113.00
1063.29	4055.00
1063.71	4024.00
1064.13	4028.00
1064.55	3967.00
1064.97	4104.00
1065.39	4044.00
1065.81	3987.00
1066.23	4006.00
1066.65	3973.00
1067.07	4096.00
1067.49	3979.00
1067.91	3927.00
1068.33	3888.00
1068.75	3977.00
1069.17	3966.00
1069.59	3936.00
1070.00	3879.00
1070.42	3893.00
1070.84	3885.00
1071.26	3808.00
1071.68	3848.00
1072.10	3935.00
1072.52	3863.00
1072.94	3780.00
1073.36	3817.00
1073.78	3806.00
1074.20	3812.00
1074.62	3830.00
1075.03	3803.00
1075.45	3833.00
1075.87	3863.00
1076.29	3804.00
1076.71	3859.00
1077.13	3878.00
1077.55	3726.00
1077.97	3767.00
1078.38	3785.00
1078.80	3762.00
1079.22	3778.00
1079.64	3764.00
1080.06	3719.00
1080.48	3746.00
1080.89	3697.00
1081.31	3712.00
1081.73	3690.00
1082.15	3693.00
1082.57	3712.00
1082.99	3657.00
1083.40	3645.00
1083.82	3732.00
1084.24	3646.00
1084.66	3660.00
1085.08	3677.00
1085.49	3584.00
1085.91	3679.00
1086.33	4932.00
1086.75	3673.00
1087.17	3599.00
1087.58	3624.00
1088.00	3616.00
1088.42	3693.00
1088.84	3611.00
1089.25	3547.00
1089.67	3632.00
1090.09	3586.00
1090.51	3557.00
1090.92	3615.00
1091.34	3530.00
1091.76	3564.00
1092.18	3545.00
1092.59	3583.00
1093.01	3515.00
1093.43	3549.00
1093.84	3519.00
1094.26	3579.00
1094.68	3536.00
1095.10	3486.00
1095.51	3495.00
1095.93	3511.00
1096.35	3535.00
1096.76	3533.00
1097.18	3522.00
1097.60	3458.00
1098.01	3498.00
1098.43	3501.00
1098.85	3461.00
1099.26	3458.00
1099.68	3484.00
1100.10	3413.00
1100.51	3436.00
1100.93	3422.00
1101.35	3419.00
1101.76	3462.00
1102.18	3913.00
1102.60	3491.00
1103.01	3355.00
1103.43	3392.00
1103.84	3429.00
1104.26	3369.00
1104.68	3372.00
1105.09	3325.00
1105.51	3389.00
1105.92	3441.00
1106.34	3316.00
1106.76	3383.00
1107.17	3373.00
1107.59	3376.00
1108.00	3283.00
1108.42	3340.00
1108.83	3281.00
1109.25	3328.00
1109.67	3295.00
1110.08	3309.00
1110.50	3277.00
1110.91	3313.00
1111.33	3305.00
1111.74	3271.00
1112.16	3297.00
1112.57	3311.00
1112.99	3262.00
1113.41	3264.00
1113.82	3243.00
1114.24	3284.00
1114.65	3253.00
1115.07	3166.00
1115.48	3083.00
1115.90	2190.00
1116.31	2213.00
1116.73	2207.00
1117.14	2210.00
>>>>>End Processed Spectral Data<<<<<
