SpectraSuite Data File
++++++++++++++++++++++++++++++++++++
Date: Tue May 29 12:59:35 EEST 2018
User: CanSEE
Dark Spectrum Present: No
Reference Spectrum Present: No
Number of Sampled Component Spectra: 1
Spectrometers: MAYP11278
Integration Time (usec): 250000 (MAYP11278)
Spectra Averaged: 1 (MAYP11278)
Boxcar Smoothing: 0 (MAYP11278)
Correct for Electrical Dark: No (MAYP11278)
Strobe/Lamp Enabled: No (MAYP11278)
Correct for Detector Non-linearity: No (MAYP11278)
Correct for Stray Light: No (MAYP11278)
Number of Pixels in Processed Spectrum: 2068
>>>>>Begin Processed Spectral Data<<<<<
187.82	2314.00
188.30	2224.00
188.78	2199.00
189.26	2199.00
189.73	2969.00
190.21	3047.00
190.69	3155.00
191.17	3119.00
191.64	3180.00
192.12	3146.00
192.60	3147.00
193.07	3129.00
193.55	3135.00
194.03	3175.00
194.51	3155.00
194.98	3128.00
195.46	3156.00
195.94	3149.00
196.42	3132.00
196.89	3253.00
197.37	3159.00
197.85	3115.00
198.32	3158.00
198.80	3107.00
199.28	3144.00
199.76	3166.00
200.23	3155.00
200.71	3126.00
201.19	3198.00
201.66	3177.00
202.14	3176.00
202.62	3140.00
203.09	3174.00
203.57	3132.00
204.05	3175.00
204.53	3210.00
205.00	3143.00
205.48	3117.00
205.96	3234.00
206.43	3124.00
206.91	3188.00
207.39	3245.00
207.86	3181.00
208.34	3177.00
208.82	3182.00
209.29	3184.00
209.77	3183.00
210.25	3150.00
210.72	3134.00
211.20	3194.00
211.68	3146.00
212.15	3157.00
212.63	3274.00
213.11	3196.00
213.58	3151.00
214.06	3235.00
214.53	3148.00
215.01	3238.00
215.49	3152.00
215.96	3202.00
216.44	3184.00
216.92	3187.00
217.39	3119.00
217.87	3167.00
218.35	3228.00
218.82	3122.00
219.30	3173.00
219.77	3130.00
220.25	3171.00
220.73	3253.00
221.20	3129.00
221.68	3191.00
222.15	3135.00
222.63	3185.00
223.11	3135.00
223.58	3228.00
224.06	3187.00
224.53	3185.00
225.01	3159.00
225.49	3154.00
225.96	3145.00
226.44	3164.00
226.91	3182.00
227.39	3162.00
227.87	3189.00
228.34	3155.00
228.82	3186.00
229.29	3187.00
229.77	3186.00
230.24	3155.00
230.72	3229.00
231.20	3223.00
231.67	3173.00
232.15	3173.00
232.62	3126.00
233.10	3189.00
233.57	3166.00
234.05	3251.00
234.53	3183.00
235.00	3146.00
235.48	3177.00
235.95	3160.00
236.43	3242.00
236.90	3235.00
237.38	3160.00
237.85	3195.00
238.33	3170.00
238.80	3177.00
239.28	3193.00
239.75	3133.00
240.23	3193.00
240.71	3222.00
241.18	3176.00
241.66	3151.00
242.13	3219.00
242.61	3190.00
243.08	3126.00
243.56	3182.00
244.03	3202.00
244.51	3243.00
244.98	3167.00
245.46	3197.00
245.93	4639.00
246.41	3100.00
246.88	3171.00
247.36	3150.00
247.83	3197.00
248.31	3183.00
248.78	3121.00
249.26	3155.00
249.73	3210.00
250.21	3204.00
250.68	3226.00
251.16	3199.00
251.63	3232.00
252.10	3241.00
252.58	3175.00
253.05	3207.00
253.53	3169.00
254.00	3172.00
254.48	3215.00
254.95	3211.00
255.43	3195.00
255.90	3189.00
256.38	3222.00
256.85	3206.00
257.33	3258.00
257.80	3304.00
258.27	3228.00
258.75	3160.00
259.22	3166.00
259.70	3196.00
260.17	3237.00
260.65	3178.00
261.12	3182.00
261.59	3248.00
262.07	3153.00
262.54	3202.00
263.02	3227.00
263.49	3172.00
263.97	3220.00
264.44	3199.00
264.91	3181.00
265.39	3225.00
265.86	3244.00
266.34	3204.00
266.81	3200.00
267.28	3168.00
267.76	3226.00
268.23	3181.00
268.71	3119.00
269.18	3158.00
269.65	3132.00
270.13	3183.00
270.60	3223.00
271.08	3176.00
271.55	3168.00
272.02	3175.00
272.50	3147.00
272.97	3155.00
273.44	3187.00
273.92	3292.00
274.39	3185.00
274.87	3171.00
275.34	3151.00
275.81	3148.00
276.29	3170.00
276.76	3189.00
277.23	3076.00
277.71	3089.00
278.18	3090.00
278.65	3238.00
279.13	3126.00
279.60	3125.00
280.07	3429.00
280.55	3413.00
281.02	3475.00
281.50	3267.00
281.97	3328.00
282.44	3224.00
282.91	3193.00
283.39	3246.00
283.86	3201.00
284.33	3179.00
284.81	3224.00
285.28	3185.00
285.75	3193.00
286.23	3227.00
286.70	3161.00
287.17	3230.00
287.65	3263.00
288.12	3190.00
288.59	3207.00
289.07	3137.00
289.54	3257.00
290.01	3174.00
290.48	3202.00
290.96	3152.00
291.43	3248.00
291.90	3273.00
292.38	3193.00
292.85	3235.00
293.32	3210.00
293.79	3207.00
294.27	3210.00
294.74	3207.00
295.21	3205.00
295.69	3202.00
296.16	3265.00
296.63	3246.00
297.10	3221.00
297.58	3212.00
298.05	3199.00
298.52	3198.00
298.99	3251.00
299.47	3205.00
299.94	3203.00
300.41	3181.00
300.88	3249.00
301.36	3204.00
301.83	3229.00
302.30	3164.00
302.77	3222.00
303.25	3243.00
303.72	3139.00
304.19	3184.00
304.66	3154.00
305.13	3227.00
305.61	3196.00
306.08	3222.00
306.55	3231.00
307.02	3196.00
307.49	3195.00
307.97	3231.00
308.44	3189.00
308.91	3221.00
309.38	3248.00
309.86	3232.00
310.33	3201.00
310.80	3253.00
311.27	3182.00
311.74	3212.00
312.21	3230.00
312.69	3247.00
313.16	3170.00
313.63	3214.00
314.10	3191.00
314.57	3216.00
315.05	3178.00
315.52	3221.00
315.99	3250.00
316.46	3209.00
316.93	3237.00
317.40	3229.00
317.88	3329.00
318.35	3242.00
318.82	3198.00
319.29	3215.00
319.76	3263.00
320.23	3337.00
320.70	3271.00
321.18	3215.00
321.65	3177.00
322.12	3207.00
322.59	3299.00
323.06	3228.00
323.53	3307.00
324.00	3160.00
324.48	3237.00
324.95	3204.00
325.42	3218.00
325.89	3221.00
326.36	3231.00
326.83	3253.00
327.30	3237.00
327.77	3264.00
328.24	3269.00
328.72	3200.00
329.19	3225.00
329.66	3195.00
330.13	3212.00
330.60	3275.00
331.07	3227.00
331.54	3323.00
332.01	3208.00
332.48	3322.00
332.95	3267.00
333.43	3257.00
333.90	3272.00
334.37	3242.00
334.84	3250.00
335.31	3395.00
335.78	3214.00
336.25	3233.00
336.72	3217.00
337.19	3234.00
337.66	3209.00
338.13	3234.00
338.60	3310.00
339.07	3295.00
339.54	3212.00
340.01	3210.00
340.49	3201.00
340.96	3252.00
341.43	3283.00
341.90	3211.00
342.37	3242.00
342.84	3234.00
343.31	3237.00
343.78	3218.00
344.25	3205.00
344.72	3210.00
345.19	3223.00
345.66	3239.00
346.13	3211.00
346.60	3201.00
347.07	3299.00
347.54	3192.00
348.01	3277.00
348.48	3238.00
348.95	3182.00
349.42	3228.00
349.89	3237.00
350.36	3217.00
350.83	3191.00
351.30	3222.00
351.77	3330.00
352.24	3251.00
352.71	3201.00
353.18	3228.00
353.65	3285.00
354.12	3257.00
354.59	3245.00
355.06	3271.00
355.53	3323.00
356.00	3236.00
356.47	3303.00
356.94	3241.00
357.41	3346.00
357.88	3248.00
358.35	3197.00
358.82	3240.00
359.28	3229.00
359.75	3257.00
360.22	3240.00
360.69	3287.00
361.16	3245.00
361.63	3239.00
362.10	3236.00
362.57	3223.00
363.04	3218.00
363.51	3324.00
363.98	3234.00
364.45	3201.00
364.92	3266.00
365.39	3212.00
365.86	3188.00
366.32	3212.00
366.79	3243.00
367.26	3843.00
367.73	3208.00
368.20	3182.00
368.67	3261.00
369.14	3236.00
369.61	3308.00
370.08	3244.00
370.55	3211.00
371.02	3785.00
371.48	3243.00
371.95	3221.00
372.42	3165.00
372.89	3252.00
373.36	3204.00
373.83	3196.00
374.30	3227.00
374.77	3232.00
375.23	3169.00
375.70	3302.00
376.17	3217.00
376.64	3207.00
377.11	3170.00
377.58	3268.00
378.05	3265.00
378.51	3244.00
378.98	3232.00
379.45	3245.00
379.92	3242.00
380.39	3345.00
380.86	3231.00
381.33	3279.00
381.79	3323.00
382.26	3195.00
382.73	3266.00
383.20	3238.00
383.67	3248.00
384.14	3219.00
384.60	3451.00
385.07	3248.00
385.54	3242.00
386.01	3255.00
386.48	3310.00
386.94	3202.00
387.41	3186.00
387.88	3270.00
388.35	3243.00
388.82	3281.00
389.28	3237.00
389.75	3288.00
390.22	3278.00
390.69	3269.00
391.16	3258.00
391.62	3280.00
392.09	3295.00
392.56	3223.00
393.03	3265.00
393.50	3308.00
393.96	3214.00
394.43	3306.00
394.90	3239.00
395.37	3258.00
395.83	3458.00
396.30	3199.00
396.77	3298.00
397.24	3307.00
397.70	3206.00
398.17	3261.00
398.64	3281.00
399.11	3276.00
399.57	3319.00
400.04	3220.00
400.51	3259.00
400.98	3230.00
401.44	3276.00
401.91	3259.00
402.38	3280.00
402.84	3250.00
403.31	3323.00
403.78	3307.00
404.25	3374.00
404.71	3357.00
405.18	3319.00
405.65	3245.00
406.12	3338.00
406.58	3313.00
407.05	3357.00
407.52	3305.00
407.98	3915.00
408.45	3314.00
408.92	3252.00
409.38	3355.00
409.85	3236.00
410.32	3314.00
410.78	3284.00
411.25	3336.00
411.72	3254.00
412.18	3236.00
412.65	3306.00
413.12	3265.00
413.59	3274.00
414.05	3344.00
414.52	3346.00
414.98	3295.00
415.45	3371.00
415.92	3319.00
416.38	3296.00
416.85	3308.00
417.32	3312.00
417.78	3297.00
418.25	3272.00
418.72	3284.00
419.18	3327.00
419.65	3300.00
420.12	3317.00
420.58	3257.00
421.05	3324.00
421.51	3293.00
421.98	3322.00
422.45	3292.00
422.91	3300.00
423.38	3307.00
423.85	3330.00
424.31	3314.00
424.78	3297.00
425.24	3279.00
425.71	3356.00
426.18	3288.00
426.64	3354.00
427.11	3304.00
427.57	3358.00
428.04	3259.00
428.51	3282.00
428.97	3315.00
429.44	3286.00
429.90	3262.00
430.37	3407.00
430.83	3253.00
431.30	3297.00
431.77	3325.00
432.23	3348.00
432.70	3309.00
433.16	3286.00
433.63	3310.00
434.09	3264.00
434.56	3321.00
435.03	3276.00
435.49	3329.00
435.96	3328.00
436.42	3254.00
436.89	3335.00
437.35	3285.00
437.82	3293.00
438.28	3289.00
438.75	3306.00
439.21	3438.00
439.68	3331.00
440.14	3343.00
440.61	3381.00
441.07	3304.00
441.54	3311.00
442.00	3426.00
442.47	3274.00
442.94	3318.00
443.40	3357.00
443.87	3254.00
444.33	3385.00
444.80	3354.00
445.26	3296.00
445.73	3316.00
446.19	3313.00
446.65	3314.00
447.12	3334.00
447.58	3307.00
448.05	3341.00
448.51	3370.00
448.98	3380.00
449.44	3300.00
449.91	3355.00
450.37	3328.00
450.84	3360.00
451.30	3366.00
451.77	3374.00
452.23	3275.00
452.70	3361.00
453.16	3316.00
453.62	3321.00
454.09	3332.00
454.55	3357.00
455.02	3332.00
455.48	3335.00
455.95	3363.00
456.41	3298.00
456.88	3382.00
457.34	3342.00
457.80	3323.00
458.27	3293.00
458.73	3322.00
459.20	3347.00
459.66	3342.00
460.13	3257.00
460.59	3241.00
461.05	3341.00
461.52	3350.00
461.98	3302.00
462.45	3270.00
462.91	3322.00
463.37	3270.00
463.84	3284.00
464.30	3266.00
464.76	3231.00
465.23	3247.00
465.69	3293.00
466.16	3289.00
466.62	3268.00
467.08	3267.00
467.55	3252.00
468.01	3247.00
468.48	3225.00
468.94	3254.00
469.40	3194.00
469.87	3213.00
470.33	3247.00
470.79	3205.00
471.26	3198.00
471.72	3179.00
472.18	3197.00
472.65	3154.00
473.11	3264.00
473.57	3230.00
474.04	3201.00
474.50	3188.00
474.96	3141.00
475.43	3253.00
475.89	3209.00
476.35	3174.00
476.82	3199.00
477.28	3229.00
477.74	3261.00
478.21	3171.00
478.67	3239.00
479.13	3174.00
479.59	3294.00
480.06	3200.00
480.52	3202.00
480.98	3181.00
481.45	3186.00
481.91	3188.00
482.37	3178.00
482.84	3193.00
483.30	3113.00
483.76	3176.00
484.22	3245.00
484.69	3194.00
485.15	3192.00
485.61	3127.00
486.07	3146.00
486.54	3095.00
487.00	3193.00
487.46	3143.00
487.92	3124.00
488.39	3145.00
488.85	3166.00
489.31	3199.00
489.77	3252.00
490.24	3136.00
490.70	3185.00
491.16	3147.00
491.62	3186.00
492.09	3177.00
492.55	3266.00
493.01	3232.00
493.47	3213.00
493.94	3182.00
494.40	3198.00
494.86	3196.00
495.32	3198.00
495.78	3241.00
496.25	3208.00
496.71	3254.00
497.17	3307.00
497.63	3280.00
498.09	3211.00
498.56	3246.00
499.02	3228.00
499.48	3356.00
499.94	3262.00
500.40	3293.00
500.87	3298.00
501.33	3253.00
501.79	3278.00
502.25	3323.00
502.71	3544.00
503.17	3317.00
503.64	3305.00
504.10	3353.00
504.56	3354.00
505.02	3383.00
505.48	3391.00
505.94	3426.00
506.40	3493.00
506.87	3454.00
507.33	3487.00
507.79	3479.00
508.25	3479.00
508.71	3459.00
509.17	3468.00
509.63	3526.00
510.10	3566.00
510.56	3568.00
511.02	3678.00
511.48	3708.00
511.94	3654.00
512.40	3591.00
512.86	3689.00
513.32	3730.00
513.78	3683.00
514.25	3778.00
514.71	4362.00
515.17	3757.00
515.63	3840.00
516.09	3876.00
516.55	3827.00
517.01	3947.00
517.47	3924.00
517.93	3937.00
518.39	4133.00
518.85	4015.00
519.32	4106.00
519.78	4132.00
520.24	4208.00
520.70	4261.00
521.16	4327.00
521.62	4400.00
522.08	4372.00
522.54	4362.00
523.00	4509.00
523.46	4544.00
523.92	4552.00
524.38	4751.00
524.84	4670.00
525.30	4678.00
525.76	4678.00
526.22	4587.00
526.68	4599.00
527.14	4660.00
527.60	4740.00
528.06	4831.00
528.52	4895.00
528.98	4917.00
529.44	4836.00
529.90	4963.00
530.36	5008.00
530.82	5010.00
531.28	5048.00
531.74	5053.00
532.20	4981.00
532.66	4954.00
533.12	5076.00
533.58	5119.00
534.04	5077.00
534.50	5139.00
534.96	5154.00
535.42	5212.00
535.88	5219.00
536.34	5138.00
536.80	5089.00
537.26	5177.00
537.72	5242.00
538.18	5247.00
538.64	5247.00
539.10	5201.00
539.56	5428.00
540.02	5101.00
540.48	5143.00
540.94	5217.00
541.40	5175.00
541.86	5290.00
542.32	5263.00
542.78	5187.00
543.24	5326.00
543.69	5285.00
544.15	5389.00
544.61	5341.00
545.07	5256.00
545.53	5327.00
545.99	5323.00
546.45	5309.00
546.91	5342.00
547.37	5267.00
547.83	5313.00
548.29	5321.00
548.74	5358.00
549.20	5394.00
549.66	5402.00
550.12	5331.00
550.58	5295.00
551.04	5359.00
551.50	5378.00
551.96	5438.00
552.42	5389.00
552.87	5330.00
553.33	5374.00
553.79	5328.00
554.25	5363.00
554.71	5378.00
555.17	5359.00
555.63	5411.00
556.08	5303.00
556.54	5298.00
557.00	5224.00
557.46	5329.00
557.92	5380.00
558.38	5113.00
558.83	5171.00
559.29	5103.00
559.75	5145.00
560.21	5178.00
560.67	5203.00
561.13	5209.00
561.58	5069.00
562.04	5175.00
562.50	5087.00
562.96	5080.00
563.42	5078.00
563.87	5057.00
564.33	5076.00
564.79	5025.00
565.25	4955.00
565.71	4927.00
566.16	4984.00
566.62	4882.00
567.08	4900.00
567.54	4931.00
568.00	4864.00
568.45	4801.00
568.91	4707.00
569.37	4854.00
569.83	4731.00
570.28	4683.00
570.74	4634.00
571.20	4629.00
571.66	4644.00
572.11	4666.00
572.57	4618.00
573.03	4582.00
573.49	4528.00
573.94	4607.00
574.40	4574.00
574.86	4591.00
575.32	4419.00
575.77	4425.00
576.23	4390.00
576.69	4496.00
577.15	4406.00
577.60	4387.00
578.06	4289.00
578.52	4387.00
578.97	4368.00
579.43	4266.00
579.89	4318.00
580.34	4317.00
580.80	4309.00
581.26	4283.00
581.72	4317.00
582.17	4261.00
582.63	4266.00
583.09	4308.00
583.54	4326.00
584.00	4243.00
584.46	4235.00
584.91	4191.00
585.37	4302.00
585.83	4166.00
586.28	4202.00
586.74	4167.00
587.20	4133.00
587.65	4223.00
588.11	4083.00
588.57	4082.00
589.02	3993.00
589.48	3965.00
589.94	4017.00
590.39	4063.00
590.85	4064.00
591.30	4035.00
591.76	4062.00
592.22	4029.00
592.67	4040.00
593.13	4010.00
593.59	4074.00
594.04	4028.00
594.50	4028.00
594.95	4050.00
595.41	3951.00
595.87	4021.00
596.32	4052.00
596.78	4059.00
597.23	4105.00
597.69	4049.00
598.15	3994.00
598.60	3983.00
599.06	4058.00
599.51	3918.00
599.97	4014.00
600.43	4036.00
600.88	4058.00
601.34	3987.00
601.79	3915.00
602.25	4122.00
602.70	3936.00
603.16	3996.00
603.61	3960.00
604.07	3902.00
604.53	3940.00
604.98	3931.00
605.44	3942.00
605.89	3946.00
606.35	3883.00
606.80	3946.00
607.26	3872.00
607.71	3922.00
608.17	3936.00
608.62	3882.00
609.08	3976.00
609.53	3957.00
609.99	3861.00
610.44	3797.00
610.90	3834.00
611.35	3822.00
611.81	3887.00
612.26	3805.00
612.72	3785.00
613.17	3927.00
613.63	3713.00
614.08	3752.00
614.54	3724.00
614.99	3714.00
615.45	3698.00
615.90	3708.00
616.36	3646.00
616.81	3679.00
617.27	3693.00
617.72	3753.00
618.18	3706.00
618.63	3687.00
619.09	3695.00
619.54	3731.00
619.99	3734.00
620.45	3703.00
620.90	3756.00
621.36	3654.00
621.81	3675.00
622.27	3707.00
622.72	3690.00
623.18	3610.00
623.63	3599.00
624.08	3674.00
624.54	3591.00
624.99	3611.00
625.45	3618.00
625.90	3561.00
626.35	3655.00
626.81	3626.00
627.26	3546.00
627.72	3653.00
628.17	3639.00
628.62	3545.00
629.08	3603.00
629.53	3615.00
629.99	3555.00
630.44	3568.00
630.89	3616.00
631.35	3651.00
631.80	3622.00
632.26	3670.00
632.71	3559.00
633.16	3616.00
633.62	3552.00
634.07	3568.00
634.52	3568.00
634.98	3564.00
635.43	3562.00
635.88	3540.00
636.34	3586.00
636.79	3550.00
637.24	3497.00
637.70	3595.00
638.15	3541.00
638.60	3535.00
639.06	3509.00
639.51	3495.00
639.96	3471.00
640.42	3536.00
640.87	3486.00
641.32	3419.00
641.78	3443.00
642.23	3493.00
642.68	3414.00
643.14	3428.00
643.59	3441.00
644.04	3386.00
644.49	3366.00
644.95	3417.00
645.40	3354.00
645.85	3369.00
646.31	3357.00
646.76	3350.00
647.21	3351.00
647.66	3357.00
648.12	3352.00
648.57	3298.00
649.02	3379.00
649.47	3315.00
649.93	3466.00
650.38	3258.00
650.83	3260.00
651.28	3303.00
651.74	3288.00
652.19	3232.00
652.64	3253.00
653.09	3277.00
653.55	3279.00
654.00	3268.00
654.45	3269.00
654.90	3264.00
655.35	3244.00
655.81	3262.00
656.26	3163.00
656.71	3214.00
657.16	3238.00
657.62	3289.00
658.07	3197.00
658.52	3288.00
658.97	3206.00
659.42	3386.00
659.88	3175.00
660.33	3258.00
660.78	3218.00
661.23	3151.00
661.68	3194.00
662.13	3201.00
662.59	3113.00
663.04	3206.00
663.49	3117.00
663.94	3149.00
664.39	3154.00
664.84	3119.00
665.30	3170.00
665.75	3126.00
666.20	3166.00
666.65	3134.00
667.10	3245.00
667.55	3177.00
668.00	3084.00
668.46	3145.00
668.91	3096.00
669.36	3230.00
669.81	3076.00
670.26	3129.00
670.71	3162.00
671.16	3123.00
671.61	3158.00
672.06	3163.00
672.52	3089.00
672.97	3089.00
673.42	3178.00
673.87	3250.00
674.32	3152.00
674.77	3111.00
675.22	3065.00
675.67	3089.00
676.12	3119.00
676.57	3105.00
677.02	3093.00
677.47	3088.00
677.93	3216.00
678.38	3092.00
678.83	3084.00
679.28	3131.00
679.73	3057.00
680.18	3126.00
680.63	3143.00
681.08	3035.00
681.53	3056.00
681.98	3123.00
682.43	3094.00
682.88	3158.00
683.33	3156.00
683.78	3137.00
684.23	3218.00
684.68	3166.00
685.13	3156.00
685.58	3167.00
686.03	3143.00
686.48	3134.00
686.93	3155.00
687.38	3157.00
687.83	3197.00
688.28	3202.00
688.73	3315.00
689.18	3263.00
689.63	3232.00
690.08	3287.00
690.53	3348.00
690.98	3311.00
691.43	3381.00
691.88	3424.00
692.33	3432.00
692.78	3506.00
693.23	3595.00
693.68	3625.00
694.13	3688.00
694.58	3730.00
695.03	3985.00
695.48	3860.00
695.93	3947.00
696.38	4098.00
696.83	4103.00
697.28	4166.00
697.72	4238.00
698.17	4283.00
698.62	4375.00
699.07	4430.00
699.52	4542.00
699.97	4599.00
700.42	4673.00
700.87	4798.00
701.32	4956.00
701.77	4839.00
702.22	5019.00
702.67	5038.00
703.11	5134.00
703.56	5225.00
704.01	5324.00
704.46	5447.00
704.91	5534.00
705.36	5631.00
705.81	5760.00
706.26	5728.00
706.70	5884.00
707.15	5998.00
707.60	6075.00
708.05	6214.00
708.50	6315.00
708.95	6383.00
709.40	6429.00
709.84	6541.00
710.29	6657.00
710.74	6702.00
711.19	6795.00
711.64	6809.00
712.09	7010.00
712.53	6989.00
712.98	7196.00
713.43	7318.00
713.88	7320.00
714.33	7360.00
714.78	7419.00
715.22	7442.00
715.67	7528.00
716.12	7465.00
716.57	7362.00
717.02	7111.00
717.46	7043.00
717.91	7061.00
718.36	6995.00
718.81	6916.00
719.26	6974.00
719.70	7211.00
720.15	7192.00
720.60	7522.00
721.05	8000.00
721.49	8173.00
721.94	8375.00
722.39	8392.00
722.84	8244.00
723.28	8038.00
723.73	8114.00
724.18	8029.00
724.63	8175.00
725.07	8250.00
725.52	8393.00
725.97	8519.00
726.42	8638.00
726.86	8859.00
727.31	8688.00
727.76	8758.00
728.21	8888.00
728.65	8981.00
729.10	8948.00
729.55	9019.00
729.99	9465.00
730.44	9314.00
730.89	9424.00
731.33	9637.00
731.78	9839.00
732.23	10268.00
732.68	10316.00
733.12	10495.00
733.57	10603.00
734.02	10873.00
734.46	10929.00
734.91	10938.00
735.36	10978.00
735.80	11282.00
736.25	11178.00
736.70	11288.00
737.14	11381.00
737.59	11584.00
738.04	11516.00
738.48	11478.00
738.93	11391.00
739.37	11625.00
739.82	11809.00
740.27	11827.00
740.71	11923.00
741.16	11868.00
741.61	11860.00
742.05	12043.00
742.50	12150.00
742.94	12223.00
743.39	12191.00
743.84	12256.00
744.28	12358.00
744.73	12459.00
745.18	12492.00
745.62	12536.00
746.07	12558.00
746.51	12617.00
746.96	12613.00
747.40	12480.00
747.85	12542.00
748.30	12599.00
748.74	12590.00
749.19	12460.00
749.63	12628.00
750.08	12685.00
750.52	12673.00
750.97	12543.00
751.42	12601.00
751.86	12498.00
752.31	12557.00
752.75	12618.00
753.20	12537.00
753.64	12473.00
754.09	12519.00
754.53	12612.00
754.98	12586.00
755.42	12698.00
755.87	12542.00
756.31	12550.00
756.76	12342.00
757.20	12441.00
757.65	12353.00
758.09	12292.00
758.54	11853.00
758.98	10991.00
759.43	9207.00
759.87	7127.00
760.32	5866.00
760.76	5635.00
761.21	6350.00
761.65	7495.00
762.10	7810.00
762.54	7513.00
762.99	7214.00
763.43	7346.00
763.88	7599.00
764.32	8049.00
764.77	8685.00
765.21	9219.00
765.66	9521.00
766.10	10039.00
766.54	10484.00
766.99	10932.00
767.43	11259.00
767.88	11524.00
768.32	11850.00
768.77	11877.00
769.21	12121.00
769.66	12157.00
770.10	12329.00
770.54	12424.00
770.99	12365.00
771.43	12341.00
771.88	12419.00
772.32	12408.00
772.76	12310.00
773.21	12354.00
773.65	12236.00
774.10	12222.00
774.54	12214.00
774.98	12308.00
775.43	12389.00
775.87	12480.00
776.31	12500.00
776.76	12418.00
777.20	12397.00
777.65	12403.00
778.09	12321.00
778.53	12258.00
778.98	12213.00
779.42	12326.00
779.86	12201.00
780.31	12167.00
780.75	12366.00
781.19	12251.00
781.64	12293.00
782.08	12574.00
782.52	12247.00
782.97	12207.00
783.41	12086.00
783.85	11951.00
784.30	11929.00
784.74	11872.00
785.18	11850.00
785.63	11939.00
786.07	11840.00
786.51	11899.00
786.95	12073.00
787.40	11994.00
787.84	11902.00
788.28	11829.00
788.73	11789.00
789.17	11539.00
789.61	11483.00
790.05	11440.00
790.50	11466.00
790.94	11406.00
791.38	11318.00
791.82	11395.00
792.27	11375.00
792.71	11457.00
793.15	11597.00
793.59	11555.00
794.04	11398.00
794.48	11429.00
794.92	11235.00
795.36	11076.00
795.81	11051.00
796.25	11048.00
796.69	11101.00
797.13	11172.00
797.57	11318.00
798.02	11373.00
798.46	11378.00
798.90	11372.00
799.34	11232.00
799.79	11214.00
800.23	10978.00
800.67	10920.00
801.11	10820.00
801.55	10864.00
801.99	10843.00
802.44	10938.00
802.88	11116.00
803.32	11087.00
803.76	11030.00
804.20	10985.00
804.64	11043.00
805.09	11154.00
805.53	11052.00
805.97	10960.00
806.41	10817.00
806.85	10831.00
807.29	10704.00
807.74	10535.00
808.18	10629.00
808.62	10606.00
809.06	10649.00
809.50	10654.00
809.94	10546.00
810.38	10647.00
810.82	10738.00
811.27	10653.00
811.71	10356.00
812.15	10220.00
812.59	10142.00
813.03	9904.00
813.47	9572.00
813.91	9401.00
814.35	9222.00
814.79	9183.00
815.23	9096.00
815.67	9010.00
816.12	8914.00
816.56	8974.00
817.00	9055.00
817.44	9137.00
817.88	9168.00
818.32	8952.00
818.76	9104.00
819.20	9059.00
819.64	9003.00
820.08	9201.00
820.52	9318.00
820.96	9599.00
821.40	9495.00
821.84	9228.00
822.28	8866.00
822.72	8696.00
823.16	8662.00
823.60	8905.00
824.04	9456.00
824.48	9650.00
824.92	9634.00
825.36	9579.00
825.80	9460.00
826.24	9502.00
826.68	9385.00
827.12	9323.00
827.56	9293.00
828.00	9236.00
828.44	9258.00
828.88	9418.00
829.32	9458.00
829.76	9365.00
830.20	9576.00
830.64	9430.00
831.08	9502.00
831.52	9285.00
831.96	9261.00
832.40	9110.00
832.84	9274.00
833.28	9274.00
833.72	9579.00
834.16	9627.00
834.60	9746.00
835.04	9895.00
835.48	9913.00
835.91	9858.00
836.35	9858.00
836.79	9826.00
837.23	9773.00
837.67	9617.00
838.11	9616.00
838.55	9640.00
838.99	9658.00
839.43	9796.00
839.87	9925.00
840.30	9906.00
840.74	10128.00
841.18	10166.00
841.62	10131.00
842.06	10097.00
842.50	10102.00
842.94	10039.00
843.38	9852.00
843.81	9735.00
844.25	9678.00
844.69	9515.00
845.13	9646.00
845.57	9647.00
846.01	9726.00
846.45	9698.00
846.88	9874.00
847.32	9984.00
847.76	10021.00
848.20	10098.00
848.64	9983.00
849.08	9835.00
849.51	9851.00
849.95	9688.00
850.39	9472.00
850.83	9746.00
851.27	9583.00
851.70	9425.00
852.14	9493.00
852.58	9341.00
853.02	9105.00
853.46	8909.00
853.89	8884.00
854.33	8912.00
854.77	9114.00
855.21	9518.00
855.65	9943.00
856.08	10007.00
856.52	9980.00
856.96	9919.00
857.40	9697.00
857.83	9559.00
858.27	9520.00
858.71	9274.00
859.15	9383.00
859.58	9392.00
860.02	9437.00
860.46	9630.00
860.89	9795.00
861.33	9764.00
861.77	9876.00
862.21	9988.00
862.64	9949.00
863.08	9833.00
863.52	9835.00
863.95	9690.00
864.39	9500.00
864.83	9306.00
865.27	8865.00
865.70	8946.00
866.14	8788.00
866.58	8736.00
867.01	9083.00
867.45	9488.00
867.89	9535.00
868.32	9717.00
868.76	9791.00
869.20	9820.00
869.63	9853.00
870.07	9643.00
870.51	9445.00
870.94	9309.00
871.38	9103.00
871.82	9091.00
872.25	9040.00
872.69	9010.00
873.13	9084.00
873.56	9251.00
874.00	9365.00
874.43	9369.00
874.87	9559.00
875.31	9609.00
875.74	9640.00
876.18	9619.00
876.61	9565.00
877.05	9536.00
877.49	9392.00
877.92	9324.00
878.36	9200.00
878.79	9051.00
879.23	8883.00
879.67	8813.00
880.10	8821.00
880.54	8851.00
880.97	8971.00
881.41	9099.00
881.84	9354.00
882.28	9442.00
882.72	9562.00
883.15	9593.00
883.59	9611.00
884.02	9655.00
884.46	9460.00
884.89	9345.00
885.33	9169.00
885.76	9031.00
886.20	8883.00
886.63	8785.00
887.07	8722.00
887.50	8824.00
887.94	8886.00
888.37	8922.00
888.81	9109.00
889.24	9014.00
889.68	9149.00
890.11	9250.00
890.55	9334.00
890.98	9343.00
891.42	9317.00
891.85	9224.00
892.29	9081.00
892.72	9003.00
893.16	8678.00
893.59	8645.00
894.03	8440.00
894.46	8187.00
894.90	8039.00
895.33	7775.00
895.77	7768.00
896.20	7736.00
896.63	7702.00
897.07	7781.00
897.50	7751.00
897.94	7733.00
898.37	8000.00
898.81	7568.00
899.24	7472.00
899.68	7794.00
900.11	7766.00
900.54	7570.00
900.98	7461.00
901.41	7523.00
901.85	7523.00
902.28	7484.00
902.71	7597.00
903.15	7867.00
903.58	7909.00
904.02	7978.00
904.45	7931.00
904.88	7986.00
905.32	7873.00
905.75	8008.00
906.18	7664.00
906.62	7891.00
907.05	7561.00
907.48	7592.00
907.92	7551.00
908.35	7580.00
908.79	7330.00
909.22	7321.00
909.65	7238.00
910.09	7262.00
910.52	7367.00
910.95	7270.00
911.38	7376.00
911.82	7076.00
912.25	7148.00
912.68	7331.00
913.12	7289.00
913.55	7294.00
913.98	7510.00
914.42	7636.00
914.85	7665.00
915.28	7355.00
915.72	7302.00
916.15	7263.00
916.58	7384.00
917.01	7147.00
917.45	7068.00
917.88	7229.00
918.31	7326.00
918.74	7497.00
919.18	7640.00
919.61	7589.00
920.04	7781.00
920.47	7852.00
920.91	7793.00
921.34	7785.00
921.77	7728.00
922.20	7914.00
922.64	7795.00
923.07	7896.00
923.50	7739.00
923.93	7530.00
924.37	7554.00
924.80	7448.00
925.23	7411.00
925.66	7319.00
926.09	6931.00
926.53	6913.00
926.96	6770.00
927.39	6660.00
927.82	6330.00
928.25	6127.00
928.69	6066.00
929.12	5994.00
929.55	5823.00
929.98	5719.00
930.41	5551.00
930.84	5306.00
931.28	5088.00
931.71	4953.00
932.14	4666.00
932.57	4562.00
933.00	4378.00
933.43	4379.00
933.86	4285.00
934.30	4146.00
934.73	4308.00
935.16	4288.00
935.59	4125.00
936.02	4213.00
936.45	4213.00
936.88	4135.00
937.31	4418.00
937.75	4426.00
938.18	4536.00
938.61	4672.00
939.04	4778.00
939.47	4745.00
939.90	4628.00
940.33	4578.00
940.76	4316.00
941.19	4250.00
941.62	4196.00
942.05	4223.00
942.48	4068.00
942.91	4001.00
943.35	4122.00
943.78	4073.00
944.21	3982.00
944.64	4132.00
945.07	4185.00
945.50	4142.00
945.93	4145.00
946.36	4262.00
946.79	4275.00
947.22	4409.00
947.65	4391.00
948.08	4276.00
948.51	4362.00
948.94	4456.00
949.37	4467.00
949.80	4297.00
950.23	4291.00
950.66	4344.00
951.09	4423.00
951.52	4291.00
951.95	4356.00
952.38	4377.00
952.81	4539.00
953.24	4618.00
953.67	4702.00
954.10	4592.00
954.53	4741.00
954.96	4687.00
955.39	4748.00
955.82	4860.00
956.25	4850.00
956.68	4927.00
957.11	4863.00
957.53	4841.00
957.96	4822.00
958.39	4761.00
958.82	4630.00
959.25	4712.00
959.68	4798.00
960.11	4946.00
960.54	4920.00
960.97	5074.00
961.40	5166.00
961.83	5150.00
962.26	5151.00
962.68	5451.00
963.11	5421.00
963.54	5456.00
963.97	5487.00
964.40	5466.00
964.83	5566.00
965.26	5600.00
965.69	5557.00
966.11	5526.00
966.54	5478.00
966.97	5628.00
967.40	5787.00
967.83	5825.00
968.26	5763.00
968.69	5766.00
969.11	5818.00
969.54	5750.00
969.97	5802.00
970.40	5990.00
970.83	5845.00
971.26	5965.00
971.68	5890.00
972.11	5956.00
972.54	6043.00
972.97	5991.00
973.40	5867.00
973.82	5919.00
974.25	5955.00
974.68	5786.00
975.11	5798.00
975.54	5736.00
975.96	5630.00
976.39	5653.00
976.82	5716.00
977.25	5667.00
977.67	5654.00
978.10	5651.00
978.53	5664.00
978.96	5800.00
979.38	5907.00
979.81	5960.00
980.24	6128.00
980.67	6233.00
981.09	6175.00
981.52	6218.00
981.95	6264.00
982.38	6253.00
982.80	6260.00
983.23	6301.00
983.66	6339.00
984.08	6309.00
984.51	6144.00
984.94	6163.00
985.37	6147.00
985.79	6111.00
986.22	5942.00
986.65	6051.00
987.07	5959.00
987.50	5929.00
987.93	5966.00
988.35	5975.00
988.78	6015.00
989.21	6026.00
989.63	6124.00
990.06	6108.00
990.49	6229.00
990.91	6393.00
991.34	6337.00
991.77	6252.00
992.19	6295.00
992.62	6278.00
993.05	6267.00
993.47	6251.00
993.90	6139.00
994.32	6051.00
994.75	6004.00
995.18	5938.00
995.60	5945.00
996.03	5793.00
996.45	5937.00
996.88	5847.00
997.31	5755.00
997.73	5879.00
998.16	5823.00
998.58	5898.00
999.01	5899.00
999.44	5943.00
999.86	6045.00
1000.29	5962.00
1000.71	6041.00
1001.14	6095.00
1001.56	6104.00
1001.99	6017.00
1002.41	5907.00
1002.84	5890.00
1003.27	5780.00
1003.69	5702.00
1004.12	5701.00
1004.54	5676.00
1004.97	5480.00
1005.39	5438.00
1005.82	5529.00
1006.24	5477.00
1006.67	5416.00
1007.09	5491.00
1007.52	5453.00
1007.94	5447.00
1008.37	5663.00
1008.79	5545.00
1009.22	5569.00
1009.64	5547.00
1010.07	5579.00
1010.49	5546.00
1010.92	5557.00
1011.34	5621.00
1011.77	5586.00
1012.19	5536.00
1012.62	5511.00
1013.04	5444.00
1013.46	5500.00
1013.89	5221.00
1014.31	5306.00
1014.74	5241.00
1015.16	5236.00
1015.59	5189.00
1016.01	5196.00
1016.44	5199.00
1016.86	6132.00
1017.28	5234.00
1017.71	5237.00
1018.13	5419.00
1018.56	5343.00
1018.98	5374.00
1019.40	5312.00
1019.83	5385.00
1020.25	5430.00
1020.68	5420.00
1021.10	5466.00
1021.52	5428.00
1021.95	5580.00
1022.37	5509.00
1022.79	5495.00
1023.22	5474.00
1023.64	5407.00
1024.07	5321.00
1024.49	5338.00
1024.91	5251.00
1025.34	5217.00
1025.76	5281.00
1026.18	5165.00
1026.61	5170.00
1027.03	5209.00
1027.45	5207.00
1027.88	5193.00
1028.30	5323.00
1028.72	5248.00
1029.15	5247.00
1029.57	5287.00
1029.99	5272.00
1030.41	5230.00
1030.84	5248.00
1031.26	5238.00
1031.68	5216.00
1032.11	5245.00
1032.53	5138.00
1032.95	5062.00
1033.37	5073.00
1033.80	5069.00
1034.22	5007.00
1034.64	5038.00
1035.06	4880.00
1035.49	4806.00
1035.91	4835.00
1036.33	4750.00
1036.75	4846.00
1037.18	4801.00
1037.60	4915.00
1038.02	4819.00
1038.44	4849.00
1038.87	4773.00
1039.29	4779.00
1039.71	4797.00
1040.13	4799.00
1040.55	4845.00
1040.98	4845.00
1041.40	4805.00
1041.82	4770.00
1042.24	4733.00
1042.66	4759.00
1043.09	4683.00
1043.51	4702.00
1043.93	4633.00
1044.35	4516.00
1044.77	4597.00
1045.20	4566.00
1045.62	4422.00
1046.04	4499.00
1046.46	4470.00
1046.88	4375.00
1047.30	4482.00
1047.72	4386.00
1048.15	4446.00
1048.57	4310.00
1048.99	4372.00
1049.41	4371.00
1049.83	4369.00
1050.25	4419.00
1050.67	4432.00
1051.09	4352.00
1051.52	4358.00
1051.94	4305.00
1052.36	4314.00
1052.78	4248.00
1053.20	4320.00
1053.62	4285.00
1054.04	4270.00
1054.46	4282.00
1054.88	4313.00
1055.30	4185.00
1055.72	4239.00
1056.14	4143.00
1056.57	4308.00
1056.99	4061.00
1057.41	4100.00
1057.83	4115.00
1058.25	4021.00
1058.67	3982.00
1059.09	3981.00
1059.51	4090.00
1059.93	3972.00
1060.35	3957.00
1060.77	3966.00
1061.19	4014.00
1061.61	3941.00
1062.03	3932.00
1062.45	3900.00
1062.87	3956.00
1063.29	3985.00
1063.71	3877.00
1064.13	3877.00
1064.55	3851.00
1064.97	3914.00
1065.39	3889.00
1065.81	3860.00
1066.23	3866.00
1066.65	3894.00
1067.07	3979.00
1067.49	3831.00
1067.91	3751.00
1068.33	3767.00
1068.75	3782.00
1069.17	3842.00
1069.59	3787.00
1070.00	3722.00
1070.42	3751.00
1070.84	3722.00
1071.26	3665.00
1071.68	3688.00
1072.10	3747.00
1072.52	3700.00
1072.94	3638.00
1073.36	3678.00
1073.78	3672.00
1074.20	3688.00
1074.62	3646.00
1075.03	3631.00
1075.45	3657.00
1075.87	3683.00
1076.29	3665.00
1076.71	3670.00
1077.13	3701.00
1077.55	3544.00
1077.97	3620.00
1078.38	3598.00
1078.80	3591.00
1079.22	3580.00
1079.64	3544.00
1080.06	3573.00
1080.48	3525.00
1080.89	3539.00
1081.31	3532.00
1081.73	3537.00
1082.15	3496.00
1082.57	3527.00
1082.99	3508.00
1083.40	3482.00
1083.82	3534.00
1084.24	3481.00
1084.66	3474.00
1085.08	3488.00
1085.49	3356.00
1085.91	3483.00
1086.33	4436.00
1086.75	3454.00
1087.17	3403.00
1087.58	3434.00
1088.00	3447.00
1088.42	3458.00
1088.84	3455.00
1089.25	3395.00
1089.67	3409.00
1090.09	3396.00
1090.51	3368.00
1090.92	3418.00
1091.34	3316.00
1091.76	3347.00
1092.18	3306.00
1092.59	3328.00
1093.01	3312.00
1093.43	3325.00
1093.84	3304.00
1094.26	3289.00
1094.68	3361.00
1095.10	3264.00
1095.51	3309.00
1095.93	3253.00
1096.35	3290.00
1096.76	3310.00
1097.18	3283.00
1097.60	3257.00
1098.01	3263.00
1098.43	3247.00
1098.85	3211.00
1099.26	3219.00
1099.68	3231.00
1100.10	3192.00
1100.51	3193.00
1100.93	3167.00
1101.35	3166.00
1101.76	3204.00
1102.18	3611.00
1102.60	3213.00
1103.01	3084.00
1103.43	3173.00
1103.84	3142.00
1104.26	3142.00
1104.68	3147.00
1105.09	3104.00
1105.51	3115.00
1105.92	3174.00
1106.34	3094.00
1106.76	3144.00
1107.17	3129.00
1107.59	3109.00
1108.00	3033.00
1108.42	3061.00
1108.83	3053.00
1109.25	3048.00
1109.67	3044.00
1110.08	3037.00
1110.50	3019.00
1110.91	3046.00
1111.33	3020.00
1111.74	3004.00
1112.16	3016.00
1112.57	3036.00
1112.99	3008.00
1113.41	3015.00
1113.82	2993.00
1114.24	2998.00
1114.65	2991.00
1115.07	2914.00
1115.48	2895.00
1115.90	2183.00
1116.31	2199.00
1116.73	2203.00
1117.14	2201.00
>>>>>End Processed Spectral Data<<<<<
