SpectraSuite Data File
++++++++++++++++++++++++++++++++++++
Date: Tue May 29 13:19:52 EEST 2018
User: CanSEE
Dark Spectrum Present: No
Reference Spectrum Present: No
Number of Sampled Component Spectra: 1
Spectrometers: MAYP11278
Integration Time (usec): 220000 (MAYP11278)
Spectra Averaged: 1 (MAYP11278)
Boxcar Smoothing: 0 (MAYP11278)
Correct for Electrical Dark: No (MAYP11278)
Strobe/Lamp Enabled: No (MAYP11278)
Correct for Detector Non-linearity: No (MAYP11278)
Correct for Stray Light: No (MAYP11278)
Number of Pixels in Processed Spectrum: 2068
>>>>>Begin Processed Spectral Data<<<<<
187.82	2351.00
188.30	2232.00
188.78	2221.00
189.26	2212.00
189.73	3432.00
190.21	3572.00
190.69	3642.00
191.17	3688.00
191.64	3706.00
192.12	3674.00
192.60	3626.00
193.07	3614.00
193.55	3672.00
194.03	3704.00
194.51	3694.00
194.98	3674.00
195.46	3764.00
195.94	3664.00
196.42	3632.00
196.89	3779.00
197.37	3668.00
197.85	3632.00
198.32	3650.00
198.80	3638.00
199.28	3688.00
199.76	3688.00
200.23	3676.00
200.71	3664.00
201.19	3706.00
201.66	3746.00
202.14	3704.00
202.62	3626.00
203.09	3719.00
203.57	3617.00
204.05	3720.00
204.53	3760.00
205.00	3631.00
205.48	3674.00
205.96	3756.00
206.43	3678.00
206.91	3684.00
207.39	3772.00
207.86	3704.00
208.34	3728.00
208.82	3680.00
209.29	3747.00
209.77	3690.00
210.25	3688.00
210.72	3625.00
211.20	3714.00
211.68	3706.00
212.15	3674.00
212.63	3805.00
213.11	3688.00
213.58	3674.00
214.06	3798.00
214.53	3700.00
215.01	3788.00
215.49	3706.00
215.96	3688.00
216.44	3732.00
216.92	3715.00
217.39	3690.00
217.87	3656.00
218.35	3721.00
218.82	3610.00
219.30	3666.00
219.77	3658.00
220.25	3718.00
220.73	3832.00
221.20	3648.00
221.68	3749.00
222.15	3680.00
222.63	3740.00
223.11	3634.00
223.58	3750.00
224.06	3738.00
224.53	3654.00
225.01	3672.00
225.49	3692.00
225.96	3694.00
226.44	3700.00
226.91	3743.00
227.39	3654.00
227.87	3754.00
228.34	3727.00
228.82	3737.00
229.29	3724.00
229.77	3700.00
230.24	3698.00
230.72	3746.00
231.20	3782.00
231.67	3710.00
232.15	3686.00
232.62	3652.00
233.10	3662.00
233.57	3760.00
234.05	3842.00
234.53	3696.00
235.00	3660.00
235.48	3676.00
235.95	3711.00
236.43	3762.00
236.90	3796.00
237.38	3660.00
237.85	3679.00
238.33	3725.00
238.80	3728.00
239.28	3702.00
239.75	3676.00
240.23	3713.00
240.71	3792.00
241.18	3692.00
241.66	3682.00
242.13	3766.00
242.61	3776.00
243.08	3644.00
243.56	3672.00
244.03	3688.00
244.51	3797.00
244.98	3690.00
245.46	3814.00
245.93	5608.00
246.41	3640.00
246.88	3700.00
247.36	3702.00
247.83	3696.00
248.31	3743.00
248.78	3662.00
249.26	3696.00
249.73	3729.00
250.21	3755.00
250.68	3790.00
251.16	3704.00
251.63	3796.00
252.10	3810.00
252.58	3732.00
253.05	3774.00
253.53	3728.00
254.00	3690.00
254.48	3734.00
254.95	3745.00
255.43	3792.00
255.90	3678.00
256.38	3738.00
256.85	3779.00
257.33	3803.00
257.80	3859.00
258.27	3779.00
258.75	3711.00
259.22	3704.00
259.70	3720.00
260.17	3750.00
260.65	3694.00
261.12	3704.00
261.59	3780.00
262.07	3716.00
262.54	3690.00
263.02	3698.00
263.49	3698.00
263.97	3737.00
264.44	3746.00
264.91	3680.00
265.39	3754.00
265.86	3806.00
266.34	3765.00
266.81	3738.00
267.28	3700.00
267.76	3764.00
268.23	3734.00
268.71	3630.00
269.18	3650.00
269.65	3694.00
270.13	3702.00
270.60	3769.00
271.08	3684.00
271.55	3704.00
272.02	3682.00
272.50	3711.00
272.97	3674.00
273.44	3756.00
273.92	3890.00
274.39	3776.00
274.87	3722.00
275.34	3652.00
275.81	3688.00
276.29	3713.00
276.76	3724.00
277.23	3596.00
277.71	3642.00
278.18	3596.00
278.65	3814.00
279.13	3616.00
279.60	3664.00
280.07	4011.00
280.55	3934.00
281.02	4016.00
281.50	3769.00
281.97	3818.00
282.44	3772.00
282.91	3764.00
283.39	3752.00
283.86	3737.00
284.33	3698.00
284.81	3788.00
285.28	3757.00
285.75	3747.00
286.23	3773.00
286.70	3698.00
287.17	3784.00
287.65	3839.00
288.12	3757.00
288.59	3749.00
289.07	3600.00
289.54	3847.00
290.01	3680.00
290.48	3723.00
290.96	3708.00
291.43	3767.00
291.90	3860.00
292.38	3704.00
292.85	3772.00
293.32	3746.00
293.79	3780.00
294.27	3784.00
294.74	3728.00
295.21	3746.00
295.69	3745.00
296.16	3836.00
296.63	3814.00
297.10	3740.00
297.58	3752.00
298.05	3782.00
298.52	3728.00
298.99	3838.00
299.47	3710.00
299.94	3787.00
300.41	3740.00
300.88	3795.00
301.36	3798.00
301.83	3761.00
302.30	3664.00
302.77	3750.00
303.25	3761.00
303.72	3680.00
304.19	3740.00
304.66	3664.00
305.13	3760.00
305.61	3784.00
306.08	3739.00
306.55	3773.00
307.02	3712.00
307.49	3704.00
307.97	3748.00
308.44	3771.00
308.91	3803.00
309.38	3756.00
309.86	3766.00
310.33	3729.00
310.80	3807.00
311.27	3764.00
311.74	3792.00
312.21	3723.00
312.69	3853.00
313.16	3727.00
313.63	3762.00
314.10	3796.00
314.57	3702.00
315.05	3724.00
315.52	3787.00
315.99	3789.00
316.46	3782.00
316.93	3745.00
317.40	3813.00
317.88	3918.00
318.35	3770.00
318.82	3762.00
319.29	3710.00
319.76	3778.00
320.23	3830.00
320.70	3783.00
321.18	3741.00
321.65	3654.00
322.12	3729.00
322.59	3874.00
323.06	3745.00
323.53	3915.00
324.00	3666.00
324.48	3722.00
324.95	3731.00
325.42	3774.00
325.89	3721.00
326.36	3766.00
326.83	3800.00
327.30	3756.00
327.77	3799.00
328.24	3790.00
328.72	3757.00
329.19	3735.00
329.66	3739.00
330.13	3785.00
330.60	3795.00
331.07	3832.00
331.54	3852.00
332.01	3759.00
332.48	3856.00
332.95	3771.00
333.43	3777.00
333.90	3841.00
334.37	3796.00
334.84	3752.00
335.31	3956.00
335.78	3718.00
336.25	3786.00
336.72	3738.00
337.19	3768.00
337.66	3740.00
338.13	3764.00
338.60	3846.00
339.07	3792.00
339.54	3708.00
340.01	3678.00
340.49	3696.00
340.96	3777.00
341.43	3854.00
341.90	3761.00
342.37	3763.00
342.84	3814.00
343.31	3770.00
343.78	3740.00
344.25	3742.00
344.72	3747.00
345.19	3745.00
345.66	3825.00
346.13	3738.00
346.60	3700.00
347.07	3836.00
347.54	3756.00
348.01	3792.00
348.48	3734.00
348.95	3704.00
349.42	3773.00
349.89	3814.00
350.36	3729.00
350.83	3724.00
351.30	3812.00
351.77	3880.00
352.24	3844.00
352.71	3794.00
353.18	3788.00
353.65	3792.00
354.12	3780.00
354.59	3814.00
355.06	3802.00
355.53	3862.00
356.00	3764.00
356.47	3876.00
356.94	3749.00
357.41	3930.00
357.88	3856.00
358.35	3756.00
358.82	3704.00
359.28	3765.00
359.75	3753.00
360.22	3826.00
360.69	3854.00
361.16	3789.00
361.63	3776.00
362.10	3744.00
362.57	3794.00
363.04	3797.00
363.51	3892.00
363.98	3814.00
364.45	3736.00
364.92	3777.00
365.39	3759.00
365.86	3744.00
366.32	3811.00
366.79	3786.00
367.26	4820.00
367.73	4196.00
368.20	3747.00
368.67	3852.00
369.14	3730.00
369.61	3862.00
370.08	3791.00
370.55	3729.00
371.02	4520.00
371.48	3785.00
371.95	3759.00
372.42	3724.00
372.89	3773.00
373.36	3779.00
373.83	3720.00
374.30	3704.00
374.77	3778.00
375.23	3708.00
375.70	3867.00
376.17	3801.00
376.64	3752.00
377.11	3745.00
377.58	3836.00
378.05	3788.00
378.51	3746.00
378.98	3771.00
379.45	3782.00
379.92	3782.00
380.39	3908.00
380.86	3750.00
381.33	3876.00
381.79	3862.00
382.26	3729.00
382.73	3786.00
383.20	3799.00
383.67	3808.00
384.14	3809.00
384.60	4040.00
385.07	3792.00
385.54	3789.00
386.01	3757.00
386.48	3870.00
386.94	3745.00
387.41	3702.00
387.88	3802.00
388.35	3805.00
388.82	3821.00
389.28	3780.00
389.75	3821.00
390.22	3814.00
390.69	3841.00
391.16	3780.00
391.62	3780.00
392.09	3752.00
392.56	3738.00
393.03	3796.00
393.50	3940.00
393.96	3792.00
394.43	3844.00
394.90	3724.00
395.37	3840.00
395.83	4066.00
396.30	3736.00
396.77	3828.00
397.24	3826.00
397.70	3742.00
398.17	3800.00
398.64	3772.00
399.11	3716.00
399.57	3849.00
400.04	3741.00
400.51	3809.00
400.98	3764.00
401.44	3799.00
401.91	3838.00
402.38	3808.00
402.84	3778.00
403.31	3877.00
403.78	3754.00
404.25	3896.00
404.71	3846.00
405.18	3847.00
405.65	3743.00
406.12	3884.00
406.58	3828.00
407.05	3928.00
407.52	3826.00
407.98	4102.00
408.45	3852.00
408.92	3768.00
409.38	3890.00
409.85	3786.00
410.32	3883.00
410.78	3788.00
411.25	3899.00
411.72	3832.00
412.18	3742.00
412.65	3832.00
413.12	3821.00
413.59	3851.00
414.05	3830.00
414.52	3932.00
414.98	3799.00
415.45	3864.00
415.92	3882.00
416.38	3796.00
416.85	3920.00
417.32	3832.00
417.78	3817.00
418.25	3841.00
418.72	3820.00
419.18	3857.00
419.65	3787.00
420.12	3854.00
420.58	3779.00
421.05	3826.00
421.51	3803.00
421.98	3844.00
422.45	3838.00
422.91	3810.00
423.38	3846.00
423.85	3868.00
424.31	3837.00
424.78	3810.00
425.24	3864.00
425.71	3873.00
426.18	3814.00
426.64	3894.00
427.11	3864.00
427.57	3922.00
428.04	3772.00
428.51	3847.00
428.97	3888.00
429.44	3875.00
429.90	3807.00
430.37	3978.00
430.83	3775.00
431.30	3828.00
431.77	3892.00
432.23	3880.00
432.70	3838.00
433.16	3793.00
433.63	3789.00
434.09	3821.00
434.56	3869.00
435.03	3786.00
435.49	3888.00
435.96	3838.00
436.42	3778.00
436.89	3872.00
437.35	3836.00
437.82	3795.00
438.28	3789.00
438.75	3823.00
439.21	4010.00
439.68	3898.00
440.14	3882.00
440.61	3912.00
441.07	3828.00
441.54	3813.00
442.00	3997.00
442.47	3794.00
442.94	3867.00
443.40	3899.00
443.87	3745.00
444.33	3936.00
444.80	3899.00
445.26	3838.00
445.73	3808.00
446.19	3872.00
446.65	3850.00
447.12	3862.00
447.58	3778.00
448.05	3832.00
448.51	3882.00
448.98	3859.00
449.44	3814.00
449.91	3838.00
450.37	3828.00
450.84	3848.00
451.30	3904.00
451.77	3882.00
452.23	3803.00
452.70	3882.00
453.16	3852.00
453.62	3838.00
454.09	3858.00
454.55	3841.00
455.02	3812.00
455.48	3870.00
455.95	3867.00
456.41	3817.00
456.88	3920.00
457.34	3804.00
457.80	3836.00
458.27	3768.00
458.73	3865.00
459.20	3889.00
459.66	3910.00
460.13	3772.00
460.59	3776.00
461.05	3936.00
461.52	3864.00
461.98	3776.00
462.45	3715.00
462.91	3882.00
463.37	3768.00
463.84	3804.00
464.30	3810.00
464.76	3706.00
465.23	3731.00
465.69	3806.00
466.16	3791.00
466.62	3788.00
467.08	3808.00
467.55	3746.00
468.01	3750.00
468.48	3806.00
468.94	3753.00
469.40	3688.00
469.87	3743.00
470.33	3750.00
470.79	3753.00
471.26	3728.00
471.72	3706.00
472.18	3692.00
472.65	3704.00
473.11	3763.00
473.57	3702.00
474.04	3672.00
474.50	3722.00
474.96	3622.00
475.43	3729.00
475.89	3746.00
476.35	3732.00
476.82	3771.00
477.28	3682.00
477.74	3769.00
478.21	3738.00
478.67	3764.00
479.13	3658.00
479.59	3830.00
480.06	3750.00
480.52	3729.00
480.98	3702.00
481.45	3670.00
481.91	3692.00
482.37	3672.00
482.84	3666.00
483.30	3651.00
483.76	3674.00
484.22	3732.00
484.69	3724.00
485.15	3686.00
485.61	3585.00
486.07	3672.00
486.54	3588.00
487.00	3670.00
487.46	3640.00
487.92	3616.00
488.39	3716.00
488.85	3713.00
489.31	3674.00
489.77	3760.00
490.24	3676.00
490.70	3698.00
491.16	3670.00
491.62	3696.00
492.09	3596.00
492.55	3773.00
493.01	3713.00
493.47	3718.00
493.94	3695.00
494.40	3682.00
494.86	3700.00
495.32	3668.00
495.78	3684.00
496.25	3718.00
496.71	3747.00
497.17	3836.00
497.63	3752.00
498.09	3718.00
498.56	3760.00
499.02	3738.00
499.48	3873.00
499.94	3662.00
500.40	3761.00
500.87	3759.00
501.33	3755.00
501.79	3800.00
502.25	3779.00
502.71	4112.00
503.17	3762.00
503.64	3798.00
504.10	3766.00
504.56	3862.00
505.02	3860.00
505.48	3855.00
505.94	3868.00
506.40	3902.00
506.87	3843.00
507.33	3914.00
507.79	3934.00
508.25	3878.00
508.71	3910.00
509.17	3860.00
509.63	3908.00
510.10	3942.00
510.56	3948.00
511.02	4034.00
511.48	4074.00
511.94	3962.00
512.40	3960.00
512.86	4028.00
513.32	4088.00
513.78	4032.00
514.25	4172.00
514.71	4884.00
515.17	4093.00
515.63	4218.00
516.09	4194.00
516.55	4140.00
517.01	4318.00
517.47	4210.00
517.93	4253.00
518.39	4428.00
518.85	4312.00
519.32	4320.00
519.78	4330.00
520.24	4396.00
520.70	4497.00
521.16	4525.00
521.62	4576.00
522.08	4542.00
522.54	4555.00
523.00	4686.00
523.46	4688.00
523.92	4650.00
524.38	4899.00
524.84	4748.00
525.30	4772.00
525.76	4822.00
526.22	4728.00
526.68	4706.00
527.14	4764.00
527.60	4858.00
528.06	4914.00
528.52	5027.00
528.98	4944.00
529.44	4930.00
529.90	5001.00
530.36	5041.00
530.82	5016.00
531.28	5069.00
531.74	4998.00
532.20	5014.00
532.66	4928.00
533.12	5038.00
533.58	5039.00
534.04	4984.00
534.50	5065.00
534.96	5108.00
535.42	5200.00
535.88	5169.00
536.34	5111.00
536.80	5090.00
537.26	5198.00
537.72	5120.00
538.18	5138.00
538.64	5240.00
539.10	5214.00
539.56	5370.00
540.02	4996.00
540.48	5149.00
540.94	5126.00
541.40	5136.00
541.86	5220.00
542.32	5154.00
542.78	5164.00
543.24	5294.00
543.69	5114.00
544.15	5316.00
544.61	5222.00
545.07	5192.00
545.53	5240.00
545.99	5240.00
546.45	5166.00
546.91	5192.00
547.37	5232.00
547.83	5178.00
548.29	5234.00
548.74	5226.00
549.20	5208.00
549.66	5322.00
550.12	5224.00
550.58	5174.00
551.04	5248.00
551.50	5252.00
551.96	5434.00
552.42	5288.00
552.87	5236.00
553.33	5281.00
553.79	5226.00
554.25	5202.00
554.71	5280.00
555.17	5285.00
555.63	5335.00
556.08	5200.00
556.54	5294.00
557.00	5104.00
557.46	5192.00
557.92	5250.00
558.38	5130.00
558.83	5073.00
559.29	5046.00
559.75	5053.00
560.21	5104.00
560.67	5164.00
561.13	5104.00
561.58	5035.00
562.04	5052.00
562.50	5044.00
562.96	5077.00
563.42	5096.00
563.87	4930.00
564.33	5042.00
564.79	4958.00
565.25	4978.00
565.71	4929.00
566.16	4988.00
566.62	4894.00
567.08	4868.00
567.54	4892.00
568.00	4916.00
568.45	4816.00
568.91	4780.00
569.37	4792.00
569.83	4831.00
570.28	4698.00
570.74	4753.00
571.20	4720.00
571.66	4676.00
572.11	4743.00
572.57	4722.00
573.03	4636.00
573.49	4602.00
573.94	4640.00
574.40	4708.00
574.86	4656.00
575.32	4556.00
575.77	4620.00
576.23	4468.00
576.69	4618.00
577.15	4518.00
577.60	4483.00
578.06	4456.00
578.52	4572.00
578.97	4495.00
579.43	4452.00
579.89	4534.00
580.34	4509.00
580.80	4474.00
581.26	4497.00
581.72	4494.00
582.17	4462.00
582.63	4448.00
583.09	4406.00
583.54	4500.00
584.00	4366.00
584.46	4466.00
584.91	4370.00
585.37	4518.00
585.83	4352.00
586.28	4350.00
586.74	4398.00
587.20	4367.00
587.65	4456.00
588.11	4264.00
588.57	4348.00
589.02	4200.00
589.48	4255.00
589.94	4208.00
590.39	4332.00
590.85	4238.00
591.30	4336.00
591.76	4332.00
592.22	4286.00
592.67	4266.00
593.13	4267.00
593.59	4307.00
594.04	4292.00
594.50	4266.00
594.95	4347.00
595.41	4252.00
595.87	4276.00
596.32	4338.00
596.78	4314.00
597.23	4344.00
597.69	4288.00
598.15	4164.00
598.60	4192.00
599.06	4318.00
599.51	4212.00
599.97	4218.00
600.43	4316.00
600.88	4200.00
601.34	4277.00
601.79	4174.00
602.25	4382.00
602.70	4204.00
603.16	4220.00
603.61	4164.00
604.07	4142.00
604.53	4220.00
604.98	4194.00
605.44	4231.00
605.89	4186.00
606.35	4134.00
606.80	4176.00
607.26	4204.00
607.71	4172.00
608.17	4178.00
608.62	4156.00
609.08	4283.00
609.53	4208.00
609.99	4126.00
610.44	4122.00
610.90	4156.00
611.35	4068.00
611.81	4216.00
612.26	4088.00
612.72	4064.00
613.17	4299.00
613.63	4012.00
614.08	4006.00
614.54	4038.00
614.99	3991.00
615.45	3997.00
615.90	4042.00
616.36	3990.00
616.81	3997.00
617.27	4024.00
617.72	4108.00
618.18	4033.00
618.63	4016.00
619.09	4050.00
619.54	4080.00
619.99	4032.00
620.45	4086.00
620.90	4090.00
621.36	4000.00
621.81	4066.00
622.27	4074.00
622.72	4042.00
623.18	3948.00
623.63	3944.00
624.08	4088.00
624.54	3920.00
624.99	3984.00
625.45	3996.00
625.90	3950.00
626.35	3968.00
626.81	4015.00
627.26	3982.00
627.72	4026.00
628.17	3994.00
628.62	3928.00
629.08	4002.00
629.53	3975.00
629.99	3926.00
630.44	3969.00
630.89	3960.00
631.35	3962.00
631.80	3972.00
632.26	4034.00
632.71	3938.00
633.16	3944.00
633.62	3918.00
634.07	3910.00
634.52	3926.00
634.98	3942.00
635.43	3924.00
635.88	3922.00
636.34	3979.00
636.79	3985.00
637.24	3956.00
637.70	3924.00
638.15	3990.00
638.60	3916.00
639.06	3928.00
639.51	3882.00
639.96	3860.00
640.42	3902.00
640.87	3969.00
641.32	3790.00
641.78	3836.00
642.23	3867.00
642.68	3822.00
643.14	3876.00
643.59	3880.00
644.04	3818.00
644.49	3728.00
644.95	3810.00
645.40	3767.00
645.85	3786.00
646.31	3821.00
646.76	3809.00
647.21	3844.00
647.66	3760.00
648.12	3764.00
648.57	3726.00
649.02	3832.00
649.47	3748.00
649.93	3968.00
650.38	3686.00
650.83	3722.00
651.28	3725.00
651.74	3748.00
652.19	3698.00
652.64	3717.00
653.09	3688.00
653.55	3708.00
654.00	3783.00
654.45	3757.00
654.90	3727.00
655.35	3658.00
655.81	3736.00
656.26	3632.00
656.71	3686.00
657.16	3753.00
657.62	3764.00
658.07	3692.00
658.52	3732.00
658.97	3684.00
659.42	3944.00
659.88	3682.00
660.33	3752.00
660.78	3718.00
661.23	3616.00
661.68	3694.00
662.13	3616.00
662.59	3638.00
663.04	3702.00
663.49	3722.00
663.94	3672.00
664.39	3666.00
664.84	3594.00
665.30	3680.00
665.75	3640.00
666.20	3664.00
666.65	3664.00
667.10	3755.00
667.55	3670.00
668.00	3616.00
668.46	3676.00
668.91	3640.00
669.36	3777.00
669.81	3569.00
670.26	3648.00
670.71	3684.00
671.16	3600.00
671.61	3684.00
672.06	3734.00
672.52	3644.00
672.97	3646.00
673.42	3682.00
673.87	3798.00
674.32	3650.00
674.77	3628.00
675.22	3533.00
675.67	3550.00
676.12	3652.00
676.57	3598.00
677.02	3612.00
677.47	3616.00
677.93	3777.00
678.38	3570.00
678.83	3582.00
679.28	3672.00
679.73	3602.00
680.18	3584.00
680.63	3616.00
681.08	3550.00
681.53	3533.00
681.98	3626.00
682.43	3586.00
682.88	3622.00
683.33	3672.00
683.78	3619.00
684.23	3678.00
684.68	3676.00
685.13	3666.00
685.58	3684.00
686.03	3656.00
686.48	3608.00
686.93	3652.00
687.38	3640.00
687.83	3706.00
688.28	3704.00
688.73	3844.00
689.18	3764.00
689.63	3668.00
690.08	3759.00
690.53	3784.00
690.98	3740.00
691.43	3885.00
691.88	3797.00
692.33	3894.00
692.78	3902.00
693.23	4010.00
693.68	4046.00
694.13	4072.00
694.58	4052.00
695.03	4318.00
695.48	4148.00
695.93	4258.00
696.38	4336.00
696.83	4330.00
697.28	4332.00
697.72	4476.00
698.17	4386.00
698.62	4570.00
699.07	4554.00
699.52	4588.00
699.97	4660.00
700.42	4724.00
700.87	4792.00
701.32	5011.00
701.77	4786.00
702.22	5004.00
702.67	4964.00
703.11	5035.00
703.56	5166.00
704.01	5144.00
704.46	5240.00
704.91	5428.00
705.36	5456.00
705.81	5528.00
706.26	5416.00
706.70	5570.00
707.15	5659.00
707.60	5666.00
708.05	5773.00
708.50	5838.00
708.95	5910.00
709.40	5893.00
709.84	6036.00
710.29	6076.00
710.74	6110.00
711.19	6162.00
711.64	6262.00
712.09	6342.00
712.53	6310.00
712.98	6570.00
713.43	6474.00
713.88	6544.00
714.33	6712.00
714.78	6625.00
715.22	6557.00
715.67	6710.00
716.12	6692.00
716.57	6544.00
717.02	6368.00
717.46	6314.00
717.91	6432.00
718.36	6416.00
718.81	6254.00
719.26	6346.00
719.70	6412.00
720.15	6508.00
720.60	6663.00
721.05	7076.00
721.49	7201.00
721.94	7352.00
722.39	7361.00
722.84	7220.00
723.28	7130.00
723.73	7154.00
724.18	7088.00
724.63	7264.00
725.07	7248.00
725.52	7414.00
725.97	7450.00
726.42	7536.00
726.86	7720.00
727.31	7592.00
727.76	7718.00
728.21	7823.00
728.65	7778.00
729.10	7928.00
729.55	7949.00
729.99	8150.00
730.44	8004.00
730.89	8216.00
731.33	8436.00
731.78	8528.00
732.23	8712.00
732.68	8782.00
733.12	9050.00
733.57	9086.00
734.02	9284.00
734.46	9332.00
734.91	9373.00
735.36	9402.00
735.80	9532.00
736.25	9496.00
736.70	9494.00
737.14	9754.00
737.59	9746.00
738.04	9788.00
738.48	9725.00
738.93	9775.00
739.37	9788.00
739.82	9989.00
740.27	10036.00
740.71	9954.00
741.16	10152.00
741.61	10137.00
742.05	10113.00
742.50	10322.00
742.94	10378.00
743.39	10354.00
743.84	10446.00
744.28	10460.00
744.73	10534.00
745.18	10520.00
745.62	10736.00
746.07	10698.00
746.51	10520.00
746.96	10644.00
747.40	10600.00
747.85	10584.00
748.30	10554.00
748.74	10550.00
749.19	10566.00
749.63	10731.00
750.08	10566.00
750.52	10548.00
750.97	10622.00
751.42	10667.00
751.86	10676.00
752.31	10661.00
752.75	10740.00
753.20	10698.00
753.64	10655.00
754.09	10608.00
754.53	10652.00
754.98	10647.00
755.42	10662.00
755.87	10661.00
756.31	10712.00
756.76	10568.00
757.20	10598.00
757.65	10550.00
758.09	10322.00
758.54	10106.00
758.98	9168.00
759.43	7708.00
759.87	6346.00
760.32	5552.00
760.76	5574.00
761.21	6254.00
761.65	6954.00
762.10	7068.00
762.54	6804.00
762.99	6616.00
763.43	6786.00
763.88	7048.00
764.32	7388.00
764.77	7867.00
765.21	8122.00
765.66	8466.00
766.10	8716.00
766.54	9100.00
766.99	9544.00
767.43	9780.00
767.88	9869.00
768.32	10124.00
768.77	10158.00
769.21	10354.00
769.66	10302.00
770.10	10586.00
770.54	10492.00
770.99	10527.00
771.43	10500.00
771.88	10482.00
772.32	10600.00
772.76	10381.00
773.21	10406.00
773.65	10476.00
774.10	10310.00
774.54	10436.00
774.98	10442.00
775.43	10490.00
775.87	10626.00
776.31	10622.00
776.76	10606.00
777.20	10574.00
777.65	10462.00
778.09	10610.00
778.53	10454.00
778.98	10402.00
779.42	10606.00
779.86	10430.00
780.31	10408.00
780.75	10376.00
781.19	10430.00
781.64	10466.00
782.08	10476.00
782.52	10452.00
782.97	10434.00
783.41	10412.00
783.85	10348.00
784.30	10291.00
784.74	10222.00
785.18	10184.00
785.63	10161.00
786.07	10238.00
786.51	10312.00
786.95	10294.00
787.40	10202.00
787.84	10082.00
788.28	10127.00
788.73	10205.00
789.17	9985.00
789.61	9832.00
790.05	9868.00
790.50	9844.00
790.94	9738.00
791.38	9852.00
791.82	9772.00
792.27	9883.00
792.71	9752.00
793.15	10003.00
793.59	9924.00
794.04	9776.00
794.48	9850.00
794.92	9680.00
795.36	9568.00
795.81	9522.00
796.25	9612.00
796.69	9534.00
797.13	9667.00
797.57	9716.00
798.02	9730.00
798.46	9832.00
798.90	9795.00
799.34	9594.00
799.79	9788.00
800.23	9451.00
800.67	9361.00
801.11	9458.00
801.55	9402.00
801.99	9348.00
802.44	9506.00
802.88	9516.00
803.32	9615.00
803.76	9480.00
804.20	9586.00
804.64	9466.00
805.09	9632.00
805.53	9702.00
805.97	9568.00
806.41	9624.00
806.85	9419.00
807.29	9288.00
807.74	9292.00
808.18	9240.00
808.62	9226.00
809.06	9282.00
809.50	9250.00
809.94	9164.00
810.38	9264.00
810.82	9348.00
811.27	9324.00
811.71	8986.00
812.15	8907.00
812.59	8768.00
813.03	8730.00
813.47	8449.00
813.91	8296.00
814.35	8282.00
814.79	8152.00
815.23	8072.00
815.67	8016.00
816.12	8091.00
816.56	8012.00
817.00	8098.00
817.44	8116.00
817.88	8260.00
818.32	8038.00
818.76	8128.00
819.20	8136.00
819.64	8179.00
820.08	8302.00
820.52	8242.00
820.96	8536.00
821.40	8328.00
821.84	8236.00
822.28	7788.00
822.72	7849.00
823.16	7828.00
823.60	8116.00
824.04	8464.00
824.48	8462.00
824.92	8548.00
825.36	8516.00
825.80	8496.00
826.24	8432.00
826.68	8202.00
827.12	8280.00
827.56	8284.00
828.00	8272.00
828.44	8182.00
828.88	8422.00
829.32	8421.00
829.76	8310.00
830.20	8556.00
830.64	8358.00
831.08	8530.00
831.52	8385.00
831.96	8284.00
832.40	8054.00
832.84	8272.00
833.28	8176.00
833.72	8390.00
834.16	8464.00
834.60	8572.00
835.04	8662.00
835.48	8786.00
835.91	8705.00
836.35	8654.00
836.79	8632.00
837.23	8692.00
837.67	8562.00
838.11	8452.00
838.55	8572.00
838.99	8508.00
839.43	8607.00
839.87	8820.00
840.30	8778.00
840.74	8875.00
841.18	8728.00
841.62	8840.00
842.06	8861.00
842.50	8828.00
842.94	8836.00
843.38	8792.00
843.81	8712.00
844.25	8656.00
844.69	8506.00
845.13	8631.00
845.57	8465.00
846.01	8599.00
846.45	8542.00
846.88	8676.00
847.32	8742.00
847.76	8740.00
848.20	8818.00
848.64	8712.00
849.08	8790.00
849.51	8740.00
849.95	8530.00
850.39	8530.00
850.83	8618.00
851.27	8495.00
851.70	8520.00
852.14	8454.00
852.58	8228.00
853.02	8080.00
853.46	7968.00
853.89	7905.00
854.33	7965.00
854.77	8260.00
855.21	8532.00
855.65	8678.00
856.08	8835.00
856.52	8833.00
856.96	8796.00
857.40	8641.00
857.83	8562.00
858.27	8434.00
858.71	8268.00
859.15	8358.00
859.58	8338.00
860.02	8364.00
860.46	8430.00
860.89	8619.00
861.33	8588.00
861.77	8658.00
862.21	8651.00
862.64	8802.00
863.08	8750.00
863.52	8788.00
863.95	8518.00
864.39	8414.00
864.83	8232.00
865.27	7970.00
865.70	7948.00
866.14	7764.00
866.58	7964.00
867.01	8114.00
867.45	8323.00
867.89	8405.00
868.32	8496.00
868.76	8698.00
869.20	8686.00
869.63	8664.00
870.07	8658.00
870.51	8386.00
870.94	8432.00
871.38	8159.00
871.82	8104.00
872.25	8198.00
872.69	8091.00
873.13	8092.00
873.56	8192.00
874.00	8244.00
874.43	8339.00
874.87	8304.00
875.31	8552.00
875.74	8323.00
876.18	8512.00
876.61	8604.00
877.05	8426.00
877.49	8360.00
877.92	8322.00
878.36	8254.00
878.79	8120.00
879.23	8070.00
879.67	7937.00
880.10	7870.00
880.54	7941.00
880.97	8016.00
881.41	8172.00
881.84	8211.00
882.28	8328.00
882.72	8374.00
883.15	8496.00
883.59	8426.00
884.02	8586.00
884.46	8476.00
884.89	8442.00
885.33	8341.00
885.76	8022.00
886.20	7881.00
886.63	8111.00
887.07	7860.00
887.50	7906.00
887.94	7938.00
888.37	7947.00
888.81	8178.00
889.24	7972.00
889.68	8079.00
890.11	8134.00
890.55	8290.00
890.98	8306.00
891.42	8155.00
891.85	8162.00
892.29	8212.00
892.72	7981.00
893.16	7916.00
893.59	7746.00
894.03	7572.00
894.46	7538.00
894.90	7286.00
895.33	7056.00
895.77	7170.00
896.20	6982.00
896.63	7065.00
897.07	7107.00
897.50	7018.00
897.94	7094.00
898.37	7325.00
898.81	6875.00
899.24	6934.00
899.68	7256.00
900.11	7122.00
900.54	7034.00
900.98	6918.00
901.41	6998.00
901.85	7071.00
902.28	6893.00
902.71	7038.00
903.15	7270.00
903.58	7234.00
904.02	7280.00
904.45	7228.00
904.88	7182.00
905.32	7146.00
905.75	7216.00
906.18	7018.00
906.62	7078.00
907.05	6942.00
907.48	6914.00
907.92	6878.00
908.35	7028.00
908.79	6870.00
909.22	6774.00
909.65	6827.00
910.09	6810.00
910.52	6954.00
910.95	6734.00
911.38	6764.00
911.82	6577.00
912.25	6704.00
912.68	6758.00
913.12	6738.00
913.55	6752.00
913.98	6828.00
914.42	7052.00
914.85	7078.00
915.28	6797.00
915.72	6948.00
916.15	6918.00
916.58	6913.00
917.01	6732.00
917.45	6714.00
917.88	6662.00
918.31	6789.00
918.74	6892.00
919.18	6964.00
919.61	6959.00
920.04	7046.00
920.47	7176.00
920.91	7122.00
921.34	7080.00
921.77	7068.00
922.20	7134.00
922.64	7206.00
923.07	7254.00
923.50	7068.00
923.93	7026.00
924.37	7080.00
924.80	6926.00
925.23	6835.00
925.66	6824.00
926.09	6504.00
926.53	6416.00
926.96	6268.00
927.39	6248.00
927.82	5974.00
928.25	5770.00
928.69	5889.00
929.12	5754.00
929.55	5540.00
929.98	5504.00
930.41	5344.00
930.84	5254.00
931.28	5011.00
931.71	4986.00
932.14	4770.00
932.57	4796.00
933.00	4558.00
933.43	4564.00
933.86	4481.00
934.30	4480.00
934.73	4608.00
935.16	4388.00
935.59	4380.00
936.02	4516.00
936.45	4428.00
936.88	4394.00
937.31	4630.00
937.75	4616.00
938.18	4698.00
938.61	4888.00
939.04	4840.00
939.47	4840.00
939.90	4744.00
940.33	4783.00
940.76	4544.00
941.19	4555.00
941.62	4495.00
942.05	4418.00
942.48	4300.00
942.91	4317.00
943.35	4328.00
943.78	4276.00
944.21	4314.00
944.64	4440.00
945.07	4434.00
945.50	4402.00
945.93	4474.00
946.36	4568.00
946.79	4604.00
947.22	4604.00
947.65	4559.00
948.08	4412.00
948.51	4614.00
948.94	4624.00
949.37	4652.00
949.80	4592.00
950.23	4523.00
950.66	4638.00
951.09	4560.00
951.52	4496.00
951.95	4584.00
952.38	4537.00
952.81	4762.00
953.24	4746.00
953.67	4742.00
954.10	4769.00
954.53	4778.00
954.96	4778.00
955.39	4976.00
955.82	4928.00
956.25	4912.00
956.68	5126.00
957.11	4900.00
957.53	4940.00
957.96	4988.00
958.39	4862.00
958.82	4790.00
959.25	4808.00
959.68	4792.00
960.11	4992.00
960.54	4982.00
960.97	5124.00
961.40	5170.00
961.83	5136.00
962.26	5154.00
962.68	5430.00
963.11	5416.00
963.54	5362.00
963.97	5418.00
964.40	5412.00
964.83	5546.00
965.26	5428.00
965.69	5515.00
966.11	5496.00
966.54	5378.00
966.97	5624.00
967.40	5682.00
967.83	5800.00
968.26	5666.00
968.69	5666.00
969.11	5736.00
969.54	5576.00
969.97	5622.00
970.40	5696.00
970.83	5692.00
971.26	5758.00
971.68	5654.00
972.11	5692.00
972.54	5840.00
972.97	5805.00
973.40	5708.00
973.82	5736.00
974.25	5736.00
974.68	5622.00
975.11	5622.00
975.54	5586.00
975.96	5582.00
976.39	5542.00
976.82	5690.00
977.25	5596.00
977.67	5547.00
978.10	5530.00
978.53	5580.00
978.96	5702.00
979.38	5762.00
979.81	5732.00
980.24	5880.00
980.67	5926.00
981.09	5917.00
981.52	5898.00
981.95	5976.00
982.38	5974.00
982.80	5976.00
983.23	6116.00
983.66	6098.00
984.08	6000.00
984.51	5878.00
984.94	5958.00
985.37	6004.00
985.79	5902.00
986.22	5814.00
986.65	5850.00
987.07	5816.00
987.50	5805.00
987.93	5784.00
988.35	5837.00
988.78	5824.00
989.21	5800.00
989.63	5878.00
990.06	5902.00
990.49	5974.00
990.91	6034.00
991.34	5962.00
991.77	6004.00
992.19	5978.00
992.62	6042.00
993.05	5972.00
993.47	6008.00
993.90	6018.00
994.32	5972.00
994.75	5914.00
995.18	5696.00
995.60	5740.00
996.03	5638.00
996.45	5690.00
996.88	5708.00
997.31	5624.00
997.73	5763.00
998.16	5618.00
998.58	5750.00
999.01	5686.00
999.44	5734.00
999.86	5918.00
1000.29	5780.00
1000.71	5812.00
1001.14	5898.00
1001.56	5809.00
1001.99	5841.00
1002.41	5724.00
1002.84	5789.00
1003.27	5571.00
1003.69	5652.00
1004.12	5626.00
1004.54	5590.00
1004.97	5500.00
1005.39	5400.00
1005.82	5508.00
1006.24	5426.00
1006.67	5484.00
1007.09	5458.00
1007.52	5400.00
1007.94	5400.00
1008.37	5542.00
1008.79	5548.00
1009.22	5448.00
1009.64	5440.00
1010.07	5553.00
1010.49	5468.00
1010.92	5522.00
1011.34	5557.00
1011.77	5472.00
1012.19	5466.00
1012.62	5510.00
1013.04	5398.00
1013.46	5444.00
1013.89	5326.00
1014.31	5325.00
1014.74	5242.00
1015.16	5248.00
1015.59	5196.00
1016.01	5260.00
1016.44	5250.00
1016.86	6238.00
1017.28	5168.00
1017.71	5294.00
1018.13	5422.00
1018.56	5368.00
1018.98	5398.00
1019.40	5312.00
1019.83	5334.00
1020.25	5423.00
1020.68	5384.00
1021.10	5484.00
1021.52	5406.00
1021.95	5630.00
1022.37	5507.00
1022.79	5484.00
1023.22	5440.00
1023.64	5424.00
1024.07	5353.00
1024.49	5338.00
1024.91	5275.00
1025.34	5294.00
1025.76	5384.00
1026.18	5212.00
1026.61	5262.00
1027.03	5232.00
1027.45	5238.00
1027.88	5206.00
1028.30	5366.00
1028.72	5216.00
1029.15	5254.00
1029.57	5314.00
1029.99	5362.00
1030.41	5255.00
1030.84	5304.00
1031.26	5309.00
1031.68	5272.00
1032.11	5276.00
1032.53	5121.00
1032.95	5200.00
1033.37	5160.00
1033.80	5186.00
1034.22	5098.00
1034.64	5162.00
1035.06	4990.00
1035.49	4970.00
1035.91	4972.00
1036.33	4926.00
1036.75	4930.00
1037.18	4998.00
1037.60	4966.00
1038.02	4962.00
1038.44	4988.00
1038.87	4908.00
1039.29	4946.00
1039.71	4956.00
1040.13	4976.00
1040.55	5036.00
1040.98	5040.00
1041.40	5008.00
1041.82	4966.00
1042.24	4932.00
1042.66	4952.00
1043.09	4784.00
1043.51	4860.00
1043.93	4809.00
1044.35	4698.00
1044.77	4742.00
1045.20	4754.00
1045.62	4666.00
1046.04	4688.00
1046.46	4722.00
1046.88	4616.00
1047.30	4688.00
1047.72	4648.00
1048.15	4685.00
1048.57	4608.00
1048.99	4574.00
1049.41	4644.00
1049.83	4652.00
1050.25	4738.00
1050.67	4610.00
1051.09	4600.00
1051.52	4604.00
1051.94	4520.00
1052.36	4618.00
1052.78	4478.00
1053.20	4553.00
1053.62	4547.00
1054.04	4586.00
1054.46	4536.00
1054.88	4660.00
1055.30	4528.00
1055.72	4472.00
1056.14	4520.00
1056.57	4642.00
1056.99	4366.00
1057.41	4454.00
1057.83	4360.00
1058.25	4390.00
1058.67	4348.00
1059.09	4298.00
1059.51	4372.00
1059.93	4312.00
1060.35	4312.00
1060.77	4314.00
1061.19	4402.00
1061.61	4309.00
1062.03	4290.00
1062.45	4254.00
1062.87	4374.00
1063.29	4314.00
1063.71	4282.00
1064.13	4196.00
1064.55	4242.00
1064.97	4308.00
1065.39	4271.00
1065.81	4214.00
1066.23	4267.00
1066.65	4168.00
1067.07	4327.00
1067.49	4148.00
1067.91	4176.00
1068.33	4118.00
1068.75	4228.00
1069.17	4254.00
1069.59	4216.00
1070.00	4112.00
1070.42	4182.00
1070.84	4158.00
1071.26	4084.00
1071.68	4027.00
1072.10	4078.00
1072.52	4098.00
1072.94	4059.00
1073.36	4032.00
1073.78	4080.00
1074.20	4088.00
1074.62	4044.00
1075.03	4038.00
1075.45	4076.00
1075.87	4069.00
1076.29	4088.00
1076.71	4084.00
1077.13	4124.00
1077.55	3964.00
1077.97	4047.00
1078.38	4010.00
1078.80	4090.00
1079.22	4058.00
1079.64	3977.00
1080.06	3972.00
1080.48	4006.00
1080.89	3936.00
1081.31	3980.00
1081.73	3924.00
1082.15	3962.00
1082.57	3973.00
1082.99	3960.00
1083.40	3902.00
1083.82	3996.00
1084.24	3870.00
1084.66	3892.00
1085.08	3922.00
1085.49	3856.00
1085.91	3988.00
1086.33	5366.00
1086.75	3912.00
1087.17	3868.00
1087.58	3860.00
1088.00	3896.00
1088.42	3938.00
1088.84	3858.00
1089.25	3845.00
1089.67	3870.00
1090.09	3882.00
1090.51	3804.00
1090.92	3920.00
1091.34	3809.00
1091.76	3816.00
1092.18	3809.00
1092.59	3781.00
1093.01	3836.00
1093.43	3808.00
1093.84	3744.00
1094.26	3816.00
1094.68	3812.00
1095.10	3731.00
1095.51	3794.00
1095.93	3714.00
1096.35	3796.00
1096.76	3791.00
1097.18	3786.00
1097.60	3752.00
1098.01	3733.00
1098.43	3670.00
1098.85	3725.00
1099.26	3686.00
1099.68	3742.00
1100.10	3648.00
1100.51	3702.00
1100.93	3690.00
1101.35	3691.00
1101.76	3678.00
1102.18	4280.00
1102.60	3759.00
1103.01	3585.00
1103.43	3698.00
1103.84	3682.00
1104.26	3616.00
1104.68	3686.00
1105.09	3584.00
1105.51	3612.00
1105.92	3678.00
1106.34	3612.00
1106.76	3670.00
1107.17	3620.00
1107.59	3660.00
1108.00	3584.00
1108.42	3652.00
1108.83	3529.00
1109.25	3572.00
1109.67	3514.00
1110.08	3546.00
1110.50	3522.00
1110.91	3560.00
1111.33	3507.00
1111.74	3512.00
1112.16	3570.00
1112.57	3624.00
1112.99	3542.00
1113.41	3578.00
1113.82	3500.00
1114.24	3528.00
1114.65	3548.00
1115.07	3404.00
1115.48	3340.00
1115.90	2188.00
1116.31	2214.00
1116.73	2220.00
1117.14	2221.00
>>>>>End Processed Spectral Data<<<<<
