SpectraSuite Data File
++++++++++++++++++++++++++++++++++++
Date: Tue May 29 13:10:39 EEST 2018
User: CanSEE
Dark Spectrum Present: No
Reference Spectrum Present: No
Number of Sampled Component Spectra: 1
Spectrometers: MAYP11278
Integration Time (usec): 230000 (MAYP11278)
Spectra Averaged: 1 (MAYP11278)
Boxcar Smoothing: 0 (MAYP11278)
Correct for Electrical Dark: No (MAYP11278)
Strobe/Lamp Enabled: No (MAYP11278)
Correct for Detector Non-linearity: No (MAYP11278)
Correct for Stray Light: No (MAYP11278)
Number of Pixels in Processed Spectrum: 2068
>>>>>Begin Processed Spectral Data<<<<<
187.82	2336.00
188.30	2236.00
188.78	2209.00
189.26	2216.00
189.73	3206.00
190.21	3306.00
190.69	3401.00
191.17	3404.00
191.64	3486.00
192.12	3391.00
192.60	3402.00
193.07	3391.00
193.55	3437.00
194.03	3400.00
194.51	3403.00
194.98	3394.00
195.46	3454.00
195.94	3405.00
196.42	3406.00
196.89	3508.00
197.37	3394.00
197.85	3360.00
198.32	3396.00
198.80	3392.00
199.28	3425.00
199.76	3463.00
200.23	3429.00
200.71	3415.00
201.19	3476.00
201.66	3413.00
202.14	3465.00
202.62	3405.00
203.09	3420.00
203.57	3347.00
204.05	3471.00
204.53	3466.00
205.00	3395.00
205.48	3409.00
205.96	3489.00
206.43	3424.00
206.91	3438.00
207.39	3541.00
207.86	3432.00
208.34	3449.00
208.82	3432.00
209.29	3441.00
209.77	3466.00
210.25	3478.00
210.72	3402.00
211.20	3440.00
211.68	3439.00
212.15	3364.00
212.63	3505.00
213.11	3457.00
213.58	3399.00
214.06	3490.00
214.53	3445.00
215.01	3505.00
215.49	3424.00
215.96	3451.00
216.44	3448.00
216.92	3469.00
217.39	3411.00
217.87	3423.00
218.35	3455.00
218.82	3356.00
219.30	3399.00
219.77	3423.00
220.25	3418.00
220.73	3527.00
221.20	3417.00
221.68	3481.00
222.15	3398.00
222.63	3484.00
223.11	3443.00
223.58	3461.00
224.06	3434.00
224.53	3415.00
225.01	3399.00
225.49	3437.00
225.96	3408.00
226.44	3403.00
226.91	3451.00
227.39	3402.00
227.87	3472.00
228.34	3474.00
228.82	3505.00
229.29	3439.00
229.77	3471.00
230.24	3419.00
230.72	3489.00
231.20	3495.00
231.67	3424.00
232.15	3469.00
232.62	3402.00
233.10	3429.00
233.57	3486.00
234.05	3599.00
234.53	3463.00
235.00	3381.00
235.48	3457.00
235.95	3451.00
236.43	3475.00
236.90	3525.00
237.38	3391.00
237.85	3443.00
238.33	3445.00
238.80	3431.00
239.28	3429.00
239.75	3361.00
240.23	3452.00
240.71	3488.00
241.18	3431.00
241.66	3443.00
242.13	3472.00
242.61	3499.00
243.08	3376.00
243.56	3415.00
244.03	3501.00
244.51	3527.00
244.98	3421.00
245.46	3506.00
245.93	5197.00
246.41	3417.00
246.88	3413.00
247.36	3457.00
247.83	3449.00
248.31	3470.00
248.78	3399.00
249.26	3436.00
249.73	3457.00
250.21	3442.00
250.68	3500.00
251.16	3445.00
251.63	3540.00
252.10	3537.00
252.58	3431.00
253.05	3497.00
253.53	3440.00
254.00	3439.00
254.48	3452.00
254.95	3489.00
255.43	3474.00
255.90	3429.00
256.38	3455.00
256.85	3500.00
257.33	3547.00
257.80	3583.00
258.27	3437.00
258.75	3443.00
259.22	3442.00
259.70	3449.00
260.17	3532.00
260.65	3480.00
261.12	3458.00
261.59	3530.00
262.07	3393.00
262.54	3493.00
263.02	3451.00
263.49	3425.00
263.97	3499.00
264.44	3490.00
264.91	3449.00
265.39	3489.00
265.86	3475.00
266.34	3539.00
266.81	3495.00
267.28	3472.00
267.76	3448.00
268.23	3467.00
268.71	3372.00
269.18	3383.00
269.65	3401.00
270.13	3441.00
270.60	3484.00
271.08	3456.00
271.55	3427.00
272.02	3399.00
272.50	3450.00
272.97	3401.00
273.44	3425.00
273.92	3574.00
274.39	3441.00
274.87	3492.00
275.34	3388.00
275.81	3427.00
276.29	3478.00
276.76	3442.00
277.23	3384.00
277.71	3350.00
278.18	3311.00
278.65	3520.00
279.13	3407.00
279.60	3468.00
280.07	3719.00
280.55	3663.00
281.02	3734.00
281.50	3523.00
281.97	3581.00
282.44	3486.00
282.91	3511.00
283.39	3539.00
283.86	3486.00
284.33	3431.00
284.81	3526.00
285.28	3475.00
285.75	3533.00
286.23	3503.00
286.70	3419.00
287.17	3484.00
287.65	3540.00
288.12	3463.00
288.59	3482.00
289.07	3375.00
289.54	3513.00
290.01	3417.00
290.48	3460.00
290.96	3453.00
291.43	3491.00
291.90	3583.00
292.38	3429.00
292.85	3545.00
293.32	3451.00
293.79	3502.00
294.27	3490.00
294.74	3455.00
295.21	3503.00
295.69	3481.00
296.16	3541.00
296.63	3587.00
297.10	3473.00
297.58	3497.00
298.05	3497.00
298.52	3471.00
298.99	3555.00
299.47	3456.00
299.94	3495.00
300.41	3475.00
300.88	3489.00
301.36	3501.00
301.83	3462.00
302.30	3408.00
302.77	3505.00
303.25	3535.00
303.72	3443.00
304.19	3467.00
304.66	3441.00
305.13	3457.00
305.61	3442.00
306.08	3487.00
306.55	3512.00
307.02	3455.00
307.49	3471.00
307.97	3496.00
308.44	3498.00
308.91	3505.00
309.38	3503.00
309.86	3485.00
310.33	3485.00
310.80	3495.00
311.27	3445.00
311.74	3530.00
312.21	3488.00
312.69	3568.00
313.16	3487.00
313.63	3488.00
314.10	3493.00
314.57	3481.00
315.05	3460.00
315.52	3560.00
315.99	3523.00
316.46	3491.00
316.93	3529.00
317.40	3486.00
317.88	3659.00
318.35	3507.00
318.82	3508.00
319.29	3451.00
319.76	3532.00
320.23	3565.00
320.70	3539.00
321.18	3493.00
321.65	3403.00
322.12	3443.00
322.59	3556.00
323.06	3498.00
323.53	3685.00
324.00	3455.00
324.48	3539.00
324.95	3457.00
325.42	3521.00
325.89	3517.00
326.36	3481.00
326.83	3565.00
327.30	3544.00
327.77	3505.00
328.24	3509.00
328.72	3478.00
329.19	3488.00
329.66	3498.00
330.13	3493.00
330.60	3563.00
331.07	3565.00
331.54	3591.00
332.01	3491.00
332.48	3579.00
332.95	3541.00
333.43	3521.00
333.90	3605.00
334.37	3521.00
334.84	3539.00
335.31	3657.00
335.78	3457.00
336.25	3527.00
336.72	3514.00
337.19	3505.00
337.66	3499.00
338.13	3536.00
338.60	3593.00
339.07	3571.00
339.54	3426.00
340.01	3488.00
340.49	3466.00
340.96	3532.00
341.43	3558.00
341.90	3497.00
342.37	3467.00
342.84	3556.00
343.31	3514.00
343.78	3480.00
344.25	3510.00
344.72	3523.00
345.19	3534.00
345.66	3554.00
346.13	3469.00
346.60	3476.00
347.07	3639.00
347.54	3467.00
348.01	3565.00
348.48	3522.00
348.95	3433.00
349.42	3503.00
349.89	3550.00
350.36	3521.00
350.83	3480.00
351.30	3536.00
351.77	3576.00
352.24	3556.00
352.71	3523.00
353.18	3524.00
353.65	3549.00
354.12	3504.00
354.59	3535.00
355.06	3551.00
355.53	3582.00
356.00	3463.00
356.47	3633.00
356.94	3474.00
357.41	3641.00
357.88	3564.00
358.35	3480.00
358.82	3493.00
359.28	3472.00
359.75	3461.00
360.22	3613.00
360.69	3592.00
361.16	3538.00
361.63	3473.00
362.10	3526.00
362.57	3498.00
363.04	3549.00
363.51	3621.00
363.98	3513.00
364.45	3491.00
364.92	3531.00
365.39	3507.00
365.86	3475.00
366.32	3565.00
366.79	3503.00
367.26	4699.00
367.73	3823.00
368.20	3486.00
368.67	3563.00
369.14	3479.00
369.61	3575.00
370.08	3521.00
370.55	3494.00
371.02	4389.00
371.48	3536.00
371.95	3494.00
372.42	3446.00
372.89	3519.00
373.36	3501.00
373.83	3467.00
374.30	3483.00
374.77	3567.00
375.23	3476.00
375.70	3581.00
376.17	3499.00
376.64	3484.00
377.11	3507.00
377.58	3500.00
378.05	3541.00
378.51	3504.00
378.98	3516.00
379.45	3519.00
379.92	3568.00
380.39	3671.00
380.86	3499.00
381.33	3615.00
381.79	3564.00
382.26	3466.00
382.73	3533.00
383.20	3503.00
383.67	3549.00
384.14	3507.00
384.60	3703.00
385.07	3517.00
385.54	3472.00
386.01	3493.00
386.48	3594.00
386.94	3481.00
387.41	3467.00
387.88	3599.00
388.35	3532.00
388.82	3545.00
389.28	3543.00
389.75	3507.00
390.22	3499.00
390.69	3529.00
391.16	3515.00
391.62	3521.00
392.09	3545.00
392.56	3490.00
393.03	3485.00
393.50	3607.00
393.96	3561.00
394.43	3557.00
394.90	3457.00
395.37	3577.00
395.83	3750.00
396.30	3473.00
396.77	3571.00
397.24	3533.00
397.70	3439.00
398.17	3493.00
398.64	3518.00
399.11	3517.00
399.57	3582.00
400.04	3477.00
400.51	3523.00
400.98	3516.00
401.44	3543.00
401.91	3531.00
402.38	3529.00
402.84	3516.00
403.31	3585.00
403.78	3497.00
404.25	3640.00
404.71	3595.00
405.18	3566.00
405.65	3505.00
406.12	3561.00
406.58	3543.00
407.05	3631.00
407.52	3497.00
407.98	4053.00
408.45	3505.00
408.92	3488.00
409.38	3560.00
409.85	3516.00
410.32	3599.00
410.78	3505.00
411.25	3607.00
411.72	3561.00
412.18	3480.00
412.65	3581.00
413.12	3543.00
413.59	3557.00
414.05	3546.00
414.52	3651.00
414.98	3542.00
415.45	3633.00
415.92	3610.00
416.38	3562.00
416.85	3680.00
417.32	3593.00
417.78	3550.00
418.25	3601.00
418.72	3546.00
419.18	3640.00
419.65	3526.00
420.12	3626.00
420.58	3598.00
421.05	3593.00
421.51	3573.00
421.98	3587.00
422.45	3558.00
422.91	3612.00
423.38	3613.00
423.85	3628.00
424.31	3613.00
424.78	3667.00
425.24	3619.00
425.71	3698.00
426.18	3594.00
426.64	3673.00
427.11	3646.00
427.57	3665.00
428.04	3597.00
428.51	3657.00
428.97	3628.00
429.44	3609.00
429.90	3572.00
430.37	3742.00
430.83	3524.00
431.30	3591.00
431.77	3715.00
432.23	3707.00
432.70	3641.00
433.16	3657.00
433.63	3643.00
434.09	3640.00
434.56	3687.00
435.03	3600.00
435.49	3643.00
435.96	3679.00
436.42	3593.00
436.89	3718.00
437.35	3651.00
437.82	3635.00
438.28	3613.00
438.75	3655.00
439.21	3837.00
439.68	3653.00
440.14	3678.00
440.61	3762.00
441.07	3636.00
441.54	3629.00
442.00	3793.00
442.47	3651.00
442.94	3706.00
443.40	3707.00
443.87	3658.00
444.33	3801.00
444.80	3758.00
445.26	3713.00
445.73	3708.00
446.19	3737.00
446.65	3723.00
447.12	3724.00
447.58	3706.00
448.05	3704.00
448.51	3787.00
448.98	3797.00
449.44	3731.00
449.91	3669.00
450.37	3731.00
450.84	3740.00
451.30	3775.00
451.77	3775.00
452.23	3687.00
452.70	3765.00
453.16	3698.00
453.62	3740.00
454.09	3723.00
454.55	3736.00
455.02	3740.00
455.48	3763.00
455.95	3774.00
456.41	3731.00
456.88	3812.00
457.34	3705.00
457.80	3743.00
458.27	3683.00
458.73	3759.00
459.20	3735.00
459.66	3744.00
460.13	3681.00
460.59	3675.00
461.05	3792.00
461.52	3773.00
461.98	3685.00
462.45	3653.00
462.91	3709.00
463.37	3637.00
463.84	3677.00
464.30	3651.00
464.76	3578.00
465.23	3654.00
465.69	3686.00
466.16	3651.00
466.62	3640.00
467.08	3645.00
467.55	3633.00
468.01	3664.00
468.48	3656.00
468.94	3659.00
469.40	3605.00
469.87	3687.00
470.33	3604.00
470.79	3626.00
471.26	3599.00
471.72	3617.00
472.18	3603.00
472.65	3591.00
473.11	3711.00
473.57	3615.00
474.04	3595.00
474.50	3611.00
474.96	3573.00
475.43	3648.00
475.89	3631.00
476.35	3613.00
476.82	3608.00
477.28	3668.00
477.74	3655.00
478.21	3631.00
478.67	3672.00
479.13	3592.00
479.59	3707.00
480.06	3623.00
480.52	3635.00
480.98	3596.00
481.45	3627.00
481.91	3644.00
482.37	3577.00
482.84	3634.00
483.30	3564.00
483.76	3578.00
484.22	3722.00
484.69	3605.00
485.15	3589.00
485.61	3537.00
486.07	3577.00
486.54	3505.00
487.00	3599.00
487.46	3548.00
487.92	3537.00
488.39	3587.00
488.85	3608.00
489.31	3639.00
489.77	3641.00
490.24	3555.00
490.70	3612.00
491.16	3564.00
491.62	3570.00
492.09	3556.00
492.55	3634.00
493.01	3638.00
493.47	3614.00
493.94	3611.00
494.40	3622.00
494.86	3628.00
495.32	3583.00
495.78	3645.00
496.25	3628.00
496.71	3655.00
497.17	3737.00
497.63	3679.00
498.09	3611.00
498.56	3693.00
499.02	3630.00
499.48	3758.00
499.94	3655.00
500.40	3620.00
500.87	3663.00
501.33	3673.00
501.79	3673.00
502.25	3716.00
502.71	3998.00
503.17	3712.00
503.64	3744.00
504.10	3720.00
504.56	3758.00
505.02	3743.00
505.48	3742.00
505.94	3792.00
506.40	3816.00
506.87	3790.00
507.33	3856.00
507.79	3837.00
508.25	3859.00
508.71	3828.00
509.17	3826.00
509.63	3880.00
510.10	3860.00
510.56	3894.00
511.02	3993.00
511.48	4081.00
511.94	3955.00
512.40	3935.00
512.86	3967.00
513.32	4035.00
513.78	3925.00
514.25	4077.00
514.71	4726.00
515.17	4036.00
515.63	4104.00
516.09	4146.00
516.55	4064.00
517.01	4209.00
517.47	4164.00
517.93	4161.00
518.39	4320.00
518.85	4288.00
519.32	4262.00
519.78	4305.00
520.24	4368.00
520.70	4437.00
521.16	4503.00
521.62	4576.00
522.08	4487.00
522.54	4516.00
523.00	4630.00
523.46	4683.00
523.92	4674.00
524.38	4830.00
524.84	4746.00
525.30	4840.00
525.76	4809.00
526.22	4697.00
526.68	4687.00
527.14	4793.00
527.60	4833.00
528.06	5000.00
528.52	5025.00
528.98	5025.00
529.44	5039.00
529.90	5067.00
530.36	5103.00
530.82	5111.00
531.28	5200.00
531.74	5140.00
532.20	5144.00
532.66	5045.00
533.12	5198.00
533.58	5223.00
534.04	5171.00
534.50	5244.00
534.96	5279.00
535.42	5354.00
535.88	5336.00
536.34	5292.00
536.80	5275.00
537.26	5326.00
537.72	5392.00
538.18	5421.00
538.64	5437.00
539.10	5364.00
539.56	5566.00
540.02	5282.00
540.48	5370.00
540.94	5403.00
541.40	5317.00
541.86	5455.00
542.32	5437.00
542.78	5387.00
543.24	5508.00
543.69	5411.00
544.15	5618.00
544.61	5561.00
545.07	5521.00
545.53	5465.00
545.99	5499.00
546.45	5490.00
546.91	5493.00
547.37	5545.00
547.83	5525.00
548.29	5541.00
548.74	5606.00
549.20	5473.00
549.66	5683.00
550.12	5550.00
550.58	5573.00
551.04	5614.00
551.50	5634.00
551.96	5737.00
552.42	5608.00
552.87	5584.00
553.33	5663.00
553.79	5611.00
554.25	5602.00
554.71	5616.00
555.17	5643.00
555.63	5718.00
556.08	5616.00
556.54	5627.00
557.00	5443.00
557.46	5524.00
557.92	5593.00
558.38	5516.00
558.83	5445.00
559.29	5444.00
559.75	5439.00
560.21	5431.00
560.67	5505.00
561.13	5476.00
561.58	5425.00
562.04	5445.00
562.50	5365.00
562.96	5486.00
563.42	5453.00
563.87	5327.00
564.33	5495.00
564.79	5395.00
565.25	5345.00
565.71	5295.00
566.16	5323.00
566.62	5272.00
567.08	5275.00
567.54	5375.00
568.00	5288.00
568.45	5194.00
568.91	5189.00
569.37	5213.00
569.83	5147.00
570.28	4995.00
570.74	5090.00
571.20	5112.00
571.66	5023.00
572.11	5087.00
572.57	5074.00
573.03	5052.00
573.49	5010.00
573.94	5029.00
574.40	5054.00
574.86	4929.00
575.32	4816.00
575.77	4897.00
576.23	4825.00
576.69	4934.00
577.15	4871.00
577.60	4801.00
578.06	4780.00
578.52	4800.00
578.97	4841.00
579.43	4735.00
579.89	4802.00
580.34	4772.00
580.80	4742.00
581.26	4727.00
581.72	4846.00
582.17	4687.00
582.63	4701.00
583.09	4737.00
583.54	4792.00
584.00	4747.00
584.46	4729.00
584.91	4685.00
585.37	4770.00
585.83	4587.00
586.28	4687.00
586.74	4685.00
587.20	4645.00
587.65	4692.00
588.11	4548.00
588.57	4510.00
589.02	4427.00
589.48	4365.00
589.94	4544.00
590.39	4553.00
590.85	4481.00
591.30	4503.00
591.76	4593.00
592.22	4476.00
592.67	4549.00
593.13	4501.00
593.59	4612.00
594.04	4505.00
594.50	4447.00
594.95	4574.00
595.41	4497.00
595.87	4472.00
596.32	4535.00
596.78	4546.00
597.23	4539.00
597.69	4494.00
598.15	4435.00
598.60	4512.00
599.06	4547.00
599.51	4458.00
599.97	4480.00
600.43	4474.00
600.88	4536.00
601.34	4524.00
601.79	4417.00
602.25	4602.00
602.70	4421.00
603.16	4477.00
603.61	4403.00
604.07	4367.00
604.53	4467.00
604.98	4431.00
605.44	4461.00
605.89	4433.00
606.35	4390.00
606.80	4401.00
607.26	4363.00
607.71	4365.00
608.17	4361.00
608.62	4345.00
609.08	4452.00
609.53	4353.00
609.99	4349.00
610.44	4302.00
610.90	4271.00
611.35	4286.00
611.81	4352.00
612.26	4301.00
612.72	4291.00
613.17	4423.00
613.63	4212.00
614.08	4205.00
614.54	4199.00
614.99	4122.00
615.45	4219.00
615.90	4142.00
616.36	4117.00
616.81	4134.00
617.27	4228.00
617.72	4223.00
618.18	4163.00
618.63	4167.00
619.09	4199.00
619.54	4238.00
619.99	4167.00
620.45	4248.00
620.90	4252.00
621.36	4151.00
621.81	4161.00
622.27	4183.00
622.72	4190.00
623.18	4088.00
623.63	4107.00
624.08	4151.00
624.54	4029.00
624.99	4084.00
625.45	4155.00
625.90	4043.00
626.35	4155.00
626.81	4110.00
627.26	4074.00
627.72	4136.00
628.17	4112.00
628.62	4025.00
629.08	4025.00
629.53	4061.00
629.99	4051.00
630.44	4117.00
630.89	4086.00
631.35	4132.00
631.80	4120.00
632.26	4086.00
632.71	4059.00
633.16	4052.00
633.62	4045.00
634.07	4089.00
634.52	4093.00
634.98	4068.00
635.43	4059.00
635.88	4039.00
636.34	4029.00
636.79	4074.00
637.24	4013.00
637.70	4093.00
638.15	4065.00
638.60	4037.00
639.06	3991.00
639.51	4008.00
639.96	3877.00
640.42	3972.00
640.87	4052.00
641.32	3891.00
641.78	3913.00
642.23	3953.00
642.68	3848.00
643.14	3887.00
643.59	3909.00
644.04	3893.00
644.49	3839.00
644.95	3899.00
645.40	3838.00
645.85	3866.00
646.31	3859.00
646.76	3878.00
647.21	3849.00
647.66	3846.00
648.12	3851.00
648.57	3791.00
649.02	3807.00
649.47	3770.00
649.93	4004.00
650.38	3741.00
650.83	3760.00
651.28	3762.00
651.74	3756.00
652.19	3761.00
652.64	3739.00
653.09	3699.00
653.55	3714.00
654.00	3773.00
654.45	3735.00
654.90	3743.00
655.35	3639.00
655.81	3737.00
656.26	3625.00
656.71	3664.00
657.16	3722.00
657.62	3726.00
658.07	3689.00
658.52	3749.00
658.97	3641.00
659.42	3842.00
659.88	3658.00
660.33	3680.00
660.78	3681.00
661.23	3615.00
661.68	3629.00
662.13	3584.00
662.59	3575.00
663.04	3632.00
663.49	3581.00
663.94	3609.00
664.39	3589.00
664.84	3591.00
665.30	3603.00
665.75	3537.00
666.20	3583.00
666.65	3587.00
667.10	3707.00
667.55	3641.00
668.00	3513.00
668.46	3581.00
668.91	3548.00
669.36	3663.00
669.81	3461.00
670.26	3514.00
670.71	3605.00
671.16	3533.00
671.61	3607.00
672.06	3619.00
672.52	3521.00
672.97	3509.00
673.42	3553.00
673.87	3671.00
674.32	3527.00
674.77	3553.00
675.22	3480.00
675.67	3472.00
676.12	3540.00
676.57	3493.00
677.02	3522.00
677.47	3507.00
677.93	3628.00
678.38	3500.00
678.83	3463.00
679.28	3513.00
679.73	3511.00
680.18	3540.00
680.63	3516.00
681.08	3462.00
681.53	3423.00
681.98	3505.00
682.43	3542.00
682.88	3551.00
683.33	3559.00
683.78	3531.00
684.23	3594.00
684.68	3589.00
685.13	3628.00
685.58	3591.00
686.03	3590.00
686.48	3553.00
686.93	3539.00
687.38	3516.00
687.83	3556.00
688.28	3622.00
688.73	3760.00
689.18	3651.00
689.63	3633.00
690.08	3694.00
690.53	3750.00
690.98	3725.00
691.43	3821.00
691.88	3862.00
692.33	3917.00
692.78	3910.00
693.23	4021.00
693.68	4031.00
694.13	3996.00
694.58	4100.00
695.03	4387.00
695.48	4261.00
695.93	4326.00
696.38	4511.00
696.83	4452.00
697.28	4492.00
697.72	4604.00
698.17	4582.00
698.62	4722.00
699.07	4748.00
699.52	4749.00
699.97	4833.00
700.42	4945.00
700.87	5034.00
701.32	5233.00
701.77	5031.00
702.22	5195.00
702.67	5193.00
703.11	5370.00
703.56	5406.00
704.01	5496.00
704.46	5583.00
704.91	5726.00
705.36	5796.00
705.81	5835.00
706.26	5830.00
706.70	5961.00
707.15	5944.00
707.60	5995.00
708.05	6151.00
708.50	6239.00
708.95	6339.00
709.40	6261.00
709.84	6412.00
710.29	6445.00
710.74	6478.00
711.19	6549.00
711.64	6597.00
712.09	6686.00
712.53	6737.00
712.98	6874.00
713.43	6854.00
713.88	6976.00
714.33	6997.00
714.78	7001.00
715.22	6943.00
715.67	7073.00
716.12	6941.00
716.57	6905.00
717.02	6637.00
717.46	6571.00
717.91	6538.00
718.36	6534.00
718.81	6493.00
719.26	6492.00
719.70	6512.00
720.15	6688.00
720.60	6837.00
721.05	7207.00
721.49	7433.00
721.94	7575.00
722.39	7554.00
722.84	7389.00
723.28	7261.00
723.73	7163.00
724.18	7136.00
724.63	7294.00
725.07	7252.00
725.52	7465.00
725.97	7470.00
726.42	7602.00
726.86	7735.00
727.31	7593.00
727.76	7681.00
728.21	7903.00
728.65	7769.00
729.10	7834.00
729.55	7987.00
729.99	8113.00
730.44	7997.00
730.89	8100.00
731.33	8274.00
731.78	8445.00
732.23	8611.00
732.68	8725.00
733.12	8835.00
733.57	8991.00
734.02	9082.00
734.46	9272.00
734.91	9183.00
735.36	9219.00
735.80	9371.00
736.25	9317.00
736.70	9390.00
737.14	9434.00
737.59	9493.00
738.04	9523.00
738.48	9516.00
738.93	9503.00
739.37	9493.00
739.82	9790.00
740.27	9837.00
740.71	9777.00
741.16	9739.00
741.61	9821.00
742.05	9884.00
742.50	9912.00
742.94	9872.00
743.39	9951.00
743.84	9937.00
744.28	10117.00
744.73	10130.00
745.18	10133.00
745.62	10218.00
746.07	10211.00
746.51	10149.00
746.96	10170.00
747.40	10153.00
747.85	10142.00
748.30	10213.00
748.74	10193.00
749.19	10252.00
749.63	10232.00
750.08	10179.00
750.52	10180.00
750.97	10099.00
751.42	10271.00
751.86	10162.00
752.31	10101.00
752.75	10295.00
753.20	10171.00
753.64	10086.00
754.09	10168.00
754.53	10211.00
754.98	10092.00
755.42	10191.00
755.87	10144.00
756.31	10183.00
756.76	10071.00
757.20	10088.00
757.65	9919.00
758.09	9833.00
758.54	9541.00
758.98	8842.00
759.43	7423.00
759.87	6049.00
760.32	5203.00
760.76	5096.00
761.21	5739.00
761.65	6415.00
762.10	6705.00
762.54	6414.00
762.99	6167.00
763.43	6386.00
763.88	6583.00
764.32	6825.00
764.77	7320.00
765.21	7649.00
765.66	7933.00
766.10	8313.00
766.54	8662.00
766.99	9041.00
767.43	9155.00
767.88	9349.00
768.32	9663.00
768.77	9562.00
769.21	9763.00
769.66	9754.00
770.10	9873.00
770.54	10031.00
770.99	9914.00
771.43	9968.00
771.88	10081.00
772.32	10050.00
772.76	9939.00
773.21	9994.00
773.65	9886.00
774.10	9844.00
774.54	9847.00
774.98	9863.00
775.43	10093.00
775.87	10087.00
776.31	10021.00
776.76	9948.00
777.20	10100.00
777.65	10009.00
778.09	9909.00
778.53	9917.00
778.98	9782.00
779.42	10010.00
779.86	9874.00
780.31	9875.00
780.75	9916.00
781.19	9942.00
781.64	9858.00
782.08	9887.00
782.52	9829.00
782.97	9759.00
783.41	9815.00
783.85	9793.00
784.30	9755.00
784.74	9623.00
785.18	9617.00
785.63	9545.00
786.07	9702.00
786.51	9796.00
786.95	9725.00
787.40	9647.00
787.84	9564.00
788.28	9517.00
788.73	9540.00
789.17	9413.00
789.61	9394.00
790.05	9444.00
790.50	9246.00
790.94	9218.00
791.38	9394.00
791.82	9228.00
792.27	9262.00
792.71	9275.00
793.15	9537.00
793.59	9357.00
794.04	9194.00
794.48	9355.00
794.92	9071.00
795.36	9073.00
795.81	9092.00
796.25	9032.00
796.69	9027.00
797.13	9053.00
797.57	9093.00
798.02	9223.00
798.46	9280.00
798.90	9227.00
799.34	9067.00
799.79	9237.00
800.23	8971.00
800.67	8816.00
801.11	8851.00
801.55	8925.00
801.99	8823.00
802.44	8919.00
802.88	9017.00
803.32	8980.00
803.76	9005.00
804.20	8967.00
804.64	8961.00
805.09	9037.00
805.53	9149.00
805.97	9015.00
806.41	8912.00
806.85	8933.00
807.29	8766.00
807.74	8755.00
808.18	8652.00
808.62	8736.00
809.06	8664.00
809.50	8706.00
809.94	8654.00
810.38	8795.00
810.82	8767.00
811.27	8766.00
811.71	8512.00
812.15	8445.00
812.59	8203.00
813.03	8152.00
813.47	7932.00
813.91	7716.00
814.35	7729.00
814.79	7692.00
815.23	7567.00
815.67	7469.00
816.12	7517.00
816.56	7501.00
817.00	7541.00
817.44	7562.00
817.88	7725.00
818.32	7578.00
818.76	7631.00
819.20	7614.00
819.64	7629.00
820.08	7737.00
820.52	7770.00
820.96	8033.00
821.40	7724.00
821.84	7765.00
822.28	7332.00
822.72	7316.00
823.16	7309.00
823.60	7539.00
824.04	7888.00
824.48	7938.00
824.92	7956.00
825.36	8025.00
825.80	7860.00
826.24	7862.00
826.68	7650.00
827.12	7822.00
827.56	7737.00
828.00	7715.00
828.44	7606.00
828.88	7773.00
829.32	7838.00
829.76	7747.00
830.20	7975.00
830.64	7830.00
831.08	7957.00
831.52	7836.00
831.96	7645.00
832.40	7629.00
832.84	7680.00
833.28	7779.00
833.72	7815.00
834.16	8049.00
834.60	8053.00
835.04	8123.00
835.48	8279.00
835.91	8199.00
836.35	8156.00
836.79	8176.00
837.23	8116.00
837.67	7969.00
838.11	7949.00
838.55	7965.00
838.99	8059.00
839.43	8086.00
839.87	8209.00
840.30	8242.00
840.74	8321.00
841.18	8268.00
841.62	8338.00
842.06	8337.00
842.50	8370.00
842.94	8271.00
843.38	8185.00
843.81	8111.00
844.25	7985.00
844.69	7983.00
845.13	8003.00
845.57	8057.00
846.01	8051.00
846.45	8041.00
846.88	8195.00
847.32	8221.00
847.76	8259.00
848.20	8274.00
848.64	8263.00
849.08	8090.00
849.51	8085.00
849.95	8006.00
850.39	7975.00
850.83	8147.00
851.27	7968.00
851.70	7980.00
852.14	7898.00
852.58	7735.00
853.02	7647.00
853.46	7405.00
853.89	7461.00
854.33	7491.00
854.77	7731.00
855.21	8005.00
855.65	8119.00
856.08	8237.00
856.52	8202.00
856.96	8246.00
857.40	8049.00
857.83	7913.00
858.27	7897.00
858.71	7786.00
859.15	7809.00
859.58	7807.00
860.02	7909.00
860.46	7961.00
860.89	8125.00
861.33	8075.00
861.77	8095.00
862.21	8270.00
862.64	8229.00
863.08	8173.00
863.52	8099.00
863.95	8027.00
864.39	7950.00
864.83	7729.00
865.27	7459.00
865.70	7488.00
866.14	7279.00
866.58	7465.00
867.01	7602.00
867.45	7785.00
867.89	7861.00
868.32	8077.00
868.76	8035.00
869.20	8110.00
869.63	8140.00
870.07	8077.00
870.51	7858.00
870.94	7797.00
871.38	7679.00
871.82	7551.00
872.25	7548.00
872.69	7537.00
873.13	7593.00
873.56	7667.00
874.00	7779.00
874.43	7767.00
874.87	7840.00
875.31	7927.00
875.74	7858.00
876.18	8051.00
876.61	7946.00
877.05	7893.00
877.49	7871.00
877.92	7785.00
878.36	7647.00
878.79	7603.00
879.23	7566.00
879.67	7342.00
880.10	7382.00
880.54	7381.00
880.97	7445.00
881.41	7735.00
881.84	7746.00
882.28	7816.00
882.72	7835.00
883.15	7974.00
883.59	7945.00
884.02	7898.00
884.46	7907.00
884.89	7810.00
885.33	7749.00
885.76	7552.00
886.20	7373.00
886.63	7487.00
887.07	7385.00
887.50	7267.00
887.94	7357.00
888.37	7429.00
888.81	7662.00
889.24	7515.00
889.68	7723.00
890.11	7580.00
890.55	7689.00
890.98	7773.00
891.42	7718.00
891.85	7681.00
892.29	7631.00
892.72	7447.00
893.16	7343.00
893.59	7303.00
894.03	7038.00
894.46	6934.00
894.90	6857.00
895.33	6585.00
895.77	6592.00
896.20	6597.00
896.63	6552.00
897.07	6595.00
897.50	6530.00
897.94	6565.00
898.37	6715.00
898.81	6370.00
899.24	6358.00
899.68	6725.00
900.11	6645.00
900.54	6503.00
900.98	6373.00
901.41	6487.00
901.85	6483.00
902.28	6456.00
902.71	6461.00
903.15	6735.00
903.58	6755.00
904.02	6749.00
904.45	6743.00
904.88	6688.00
905.32	6684.00
905.75	6757.00
906.18	6545.00
906.62	6635.00
907.05	6478.00
907.48	6500.00
907.92	6397.00
908.35	6505.00
908.79	6394.00
909.22	6301.00
909.65	6319.00
910.09	6255.00
910.52	6368.00
910.95	6235.00
911.38	6338.00
911.82	6147.00
912.25	6231.00
912.68	6309.00
913.12	6251.00
913.55	6249.00
913.98	6403.00
914.42	6545.00
914.85	6617.00
915.28	6394.00
915.72	6352.00
916.15	6308.00
916.58	6328.00
917.01	6126.00
917.45	6156.00
917.88	6220.00
918.31	6307.00
918.74	6368.00
919.18	6461.00
919.61	6514.00
920.04	6565.00
920.47	6671.00
920.91	6601.00
921.34	6662.00
921.77	6593.00
922.20	6699.00
922.64	6652.00
923.07	6704.00
923.50	6584.00
923.93	6437.00
924.37	6504.00
924.80	6363.00
925.23	6405.00
925.66	6275.00
926.09	6070.00
926.53	6067.00
926.96	5767.00
927.39	5856.00
927.82	5629.00
928.25	5385.00
928.69	5410.00
929.12	5290.00
929.55	5194.00
929.98	5180.00
930.41	4985.00
930.84	4897.00
931.28	4597.00
931.71	4597.00
932.14	4394.00
932.57	4446.00
933.00	4171.00
933.43	4232.00
933.86	4159.00
934.30	4078.00
934.73	4185.00
935.16	4119.00
935.59	4020.00
936.02	4090.00
936.45	4096.00
936.88	4076.00
937.31	4248.00
937.75	4241.00
938.18	4352.00
938.61	4453.00
939.04	4451.00
939.47	4470.00
939.90	4439.00
940.33	4388.00
940.76	4152.00
941.19	4164.00
941.62	4082.00
942.05	4153.00
942.48	3983.00
942.91	3941.00
943.35	4040.00
943.78	3995.00
944.21	3984.00
944.64	4084.00
945.07	4082.00
945.50	4045.00
945.93	4123.00
946.36	4200.00
946.79	4126.00
947.22	4249.00
947.65	4234.00
948.08	4131.00
948.51	4201.00
948.94	4201.00
949.37	4321.00
949.80	4210.00
950.23	4158.00
950.66	4224.00
951.09	4276.00
951.52	4109.00
951.95	4228.00
952.38	4191.00
952.81	4415.00
953.24	4373.00
953.67	4348.00
954.10	4401.00
954.53	4431.00
954.96	4421.00
955.39	4489.00
955.82	4637.00
956.25	4522.00
956.68	4709.00
957.11	4565.00
957.53	4557.00
957.96	4565.00
958.39	4485.00
958.82	4418.00
959.25	4434.00
959.68	4461.00
960.11	4587.00
960.54	4643.00
960.97	4686.00
961.40	4825.00
961.83	4778.00
962.26	4709.00
962.68	5008.00
963.11	4970.00
963.54	4940.00
963.97	5038.00
964.40	4943.00
964.83	5074.00
965.26	5043.00
965.69	5047.00
966.11	4994.00
966.54	5091.00
966.97	5211.00
967.40	5280.00
967.83	5363.00
968.26	5268.00
968.69	5165.00
969.11	5218.00
969.54	5181.00
969.97	5235.00
970.40	5284.00
970.83	5252.00
971.26	5300.00
971.68	5240.00
972.11	5327.00
972.54	5334.00
972.97	5355.00
973.40	5296.00
973.82	5353.00
974.25	5265.00
974.68	5271.00
975.11	5171.00
975.54	5126.00
975.96	5133.00
976.39	5150.00
976.82	5184.00
977.25	5135.00
977.67	5128.00
978.10	5134.00
978.53	5167.00
978.96	5320.00
979.38	5329.00
979.81	5308.00
980.24	5396.00
980.67	5496.00
981.09	5487.00
981.52	5542.00
981.95	5522.00
982.38	5521.00
982.80	5570.00
983.23	5675.00
983.66	5713.00
984.08	5564.00
984.51	5497.00
984.94	5536.00
985.37	5511.00
985.79	5422.00
986.22	5398.00
986.65	5416.00
987.07	5409.00
987.50	5331.00
987.93	5315.00
988.35	5410.00
988.78	5433.00
989.21	5379.00
989.63	5483.00
990.06	5509.00
990.49	5523.00
990.91	5674.00
991.34	5612.00
991.77	5573.00
992.19	5584.00
992.62	5573.00
993.05	5587.00
993.47	5572.00
993.90	5593.00
994.32	5440.00
994.75	5489.00
995.18	5287.00
995.60	5333.00
996.03	5253.00
996.45	5307.00
996.88	5312.00
997.31	5218.00
997.73	5267.00
998.16	5248.00
998.58	5308.00
999.01	5255.00
999.44	5342.00
999.86	5435.00
1000.29	5355.00
1000.71	5443.00
1001.14	5473.00
1001.56	5436.00
1001.99	5451.00
1002.41	5291.00
1002.84	5285.00
1003.27	5227.00
1003.69	5232.00
1004.12	5151.00
1004.54	5102.00
1004.97	5074.00
1005.39	5060.00
1005.82	5066.00
1006.24	5041.00
1006.67	5036.00
1007.09	4988.00
1007.52	4981.00
1007.94	4965.00
1008.37	5223.00
1008.79	5113.00
1009.22	5083.00
1009.64	5069.00
1010.07	5065.00
1010.49	5124.00
1010.92	5069.00
1011.34	5099.00
1011.77	5089.00
1012.19	5062.00
1012.62	5051.00
1013.04	4955.00
1013.46	5048.00
1013.89	4885.00
1014.31	4949.00
1014.74	4840.00
1015.16	4871.00
1015.59	4831.00
1016.01	4859.00
1016.44	4794.00
1016.86	5696.00
1017.28	4857.00
1017.71	4809.00
1018.13	5007.00
1018.56	4995.00
1018.98	4947.00
1019.40	4939.00
1019.83	4927.00
1020.25	4993.00
1020.68	4949.00
1021.10	5080.00
1021.52	4989.00
1021.95	5215.00
1022.37	5060.00
1022.79	5049.00
1023.22	5007.00
1023.64	5028.00
1024.07	4919.00
1024.49	4969.00
1024.91	4844.00
1025.34	4820.00
1025.76	4957.00
1026.18	4826.00
1026.61	4778.00
1027.03	4843.00
1027.45	4888.00
1027.88	4827.00
1028.30	4924.00
1028.72	4875.00
1029.15	4859.00
1029.57	4889.00
1029.99	4968.00
1030.41	4810.00
1030.84	4852.00
1031.26	4862.00
1031.68	4838.00
1032.11	4860.00
1032.53	4768.00
1032.95	4765.00
1033.37	4814.00
1033.80	4807.00
1034.22	4649.00
1034.64	4800.00
1035.06	4567.00
1035.49	4577.00
1035.91	4622.00
1036.33	4508.00
1036.75	4579.00
1037.18	4572.00
1037.60	4550.00
1038.02	4577.00
1038.44	4597.00
1038.87	4570.00
1039.29	4560.00
1039.71	4546.00
1040.13	4559.00
1040.55	4655.00
1040.98	4599.00
1041.40	4534.00
1041.82	4589.00
1042.24	4491.00
1042.66	4547.00
1043.09	4433.00
1043.51	4451.00
1043.93	4426.00
1044.35	4333.00
1044.77	4399.00
1045.20	4365.00
1045.62	4293.00
1046.04	4331.00
1046.46	4328.00
1046.88	4286.00
1047.30	4311.00
1047.72	4312.00
1048.15	4373.00
1048.57	4264.00
1048.99	4203.00
1049.41	4216.00
1049.83	4299.00
1050.25	4345.00
1050.67	4257.00
1051.09	4209.00
1051.52	4286.00
1051.94	4124.00
1052.36	4199.00
1052.78	4175.00
1053.20	4241.00
1053.62	4164.00
1054.04	4215.00
1054.46	4219.00
1054.88	4227.00
1055.30	4158.00
1055.72	4151.00
1056.14	4116.00
1056.57	4291.00
1056.99	4072.00
1057.41	4067.00
1057.83	4087.00
1058.25	4028.00
1058.67	3993.00
1059.09	3972.00
1059.51	4039.00
1059.93	3947.00
1060.35	3939.00
1060.77	3998.00
1061.19	4041.00
1061.61	3990.00
1062.03	3897.00
1062.45	3905.00
1062.87	3992.00
1063.29	3974.00
1063.71	3977.00
1064.13	3886.00
1064.55	3849.00
1064.97	3933.00
1065.39	3913.00
1065.81	3885.00
1066.23	3912.00
1066.65	3908.00
1067.07	3979.00
1067.49	3860.00
1067.91	3786.00
1068.33	3802.00
1068.75	3889.00
1069.17	3825.00
1069.59	3825.00
1070.00	3818.00
1070.42	3847.00
1070.84	3789.00
1071.26	3746.00
1071.68	3723.00
1072.10	3801.00
1072.52	3787.00
1072.94	3722.00
1073.36	3779.00
1073.78	3773.00
1074.20	3734.00
1074.62	3727.00
1075.03	3710.00
1075.45	3765.00
1075.87	3803.00
1076.29	3707.00
1076.71	3714.00
1077.13	3791.00
1077.55	3651.00
1077.97	3775.00
1078.38	3715.00
1078.80	3664.00
1079.22	3697.00
1079.64	3693.00
1080.06	3630.00
1080.48	3667.00
1080.89	3633.00
1081.31	3677.00
1081.73	3636.00
1082.15	3643.00
1082.57	3693.00
1082.99	3659.00
1083.40	3584.00
1083.82	3651.00
1084.24	3573.00
1084.66	3578.00
1085.08	3623.00
1085.49	3526.00
1085.91	3602.00
1086.33	4780.00
1086.75	3641.00
1087.17	3578.00
1087.58	3581.00
1088.00	3574.00
1088.42	3671.00
1088.84	3545.00
1089.25	3513.00
1089.67	3571.00
1090.09	3541.00
1090.51	3577.00
1090.92	3565.00
1091.34	3555.00
1091.76	3487.00
1092.18	3474.00
1092.59	3508.00
1093.01	3485.00
1093.43	3477.00
1093.84	3478.00
1094.26	3490.00
1094.68	3478.00
1095.10	3467.00
1095.51	3470.00
1095.93	3435.00
1096.35	3506.00
1096.76	3491.00
1097.18	3478.00
1097.60	3462.00
1098.01	3426.00
1098.43	3461.00
1098.85	3443.00
1099.26	3434.00
1099.68	3473.00
1100.10	3383.00
1100.51	3371.00
1100.93	3401.00
1101.35	3415.00
1101.76	3398.00
1102.18	3911.00
1102.60	3415.00
1103.01	3339.00
1103.43	3378.00
1103.84	3367.00
1104.26	3323.00
1104.68	3385.00
1105.09	3270.00
1105.51	3276.00
1105.92	3405.00
1106.34	3298.00
1106.76	3404.00
1107.17	3349.00
1107.59	3344.00
1108.00	3289.00
1108.42	3323.00
1108.83	3297.00
1109.25	3302.00
1109.67	3266.00
1110.08	3291.00
1110.50	3261.00
1110.91	3275.00
1111.33	3249.00
1111.74	3235.00
1112.16	3308.00
1112.57	3285.00
1112.99	3244.00
1113.41	3245.00
1113.82	3271.00
1114.24	3239.00
1114.65	3241.00
1115.07	3157.00
1115.48	3095.00
1115.90	2191.00
1116.31	2213.00
1116.73	2211.00
1117.14	2206.00
>>>>>End Processed Spectral Data<<<<<
