SpectraSuite Data File
++++++++++++++++++++++++++++++++++++
Date: Tue May 29 12:59:42 EEST 2018
User: CanSEE
Dark Spectrum Present: No
Reference Spectrum Present: No
Number of Sampled Component Spectra: 1
Spectrometers: MAYP11278
Integration Time (usec): 250000 (MAYP11278)
Spectra Averaged: 1 (MAYP11278)
Boxcar Smoothing: 0 (MAYP11278)
Correct for Electrical Dark: No (MAYP11278)
Strobe/Lamp Enabled: No (MAYP11278)
Correct for Detector Non-linearity: No (MAYP11278)
Correct for Stray Light: No (MAYP11278)
Number of Pixels in Processed Spectrum: 2068
>>>>>Begin Processed Spectral Data<<<<<
187.82	2324.00
188.30	2227.00
188.78	2202.00
189.26	2199.00
189.73	2966.00
190.21	3074.00
190.69	3147.00
191.17	3119.00
191.64	3210.00
192.12	3117.00
192.60	3136.00
193.07	3111.00
193.55	3157.00
194.03	3186.00
194.51	3149.00
194.98	3099.00
195.46	3172.00
195.94	3131.00
196.42	3130.00
196.89	3251.00
197.37	3111.00
197.85	3123.00
198.32	3147.00
198.80	3132.00
199.28	3182.00
199.76	3194.00
200.23	3161.00
200.71	3157.00
201.19	3181.00
201.66	3163.00
202.14	3192.00
202.62	3142.00
203.09	3183.00
203.57	3110.00
204.05	3185.00
204.53	3238.00
205.00	3111.00
205.48	3128.00
205.96	3215.00
206.43	3140.00
206.91	3185.00
207.39	3218.00
207.86	3186.00
208.34	3195.00
208.82	3120.00
209.29	3185.00
209.77	3182.00
210.25	3161.00
210.72	3186.00
211.20	3191.00
211.68	3181.00
212.15	3143.00
212.63	3213.00
213.11	3184.00
213.58	3148.00
214.06	3226.00
214.53	3188.00
215.01	3225.00
215.49	3150.00
215.96	3207.00
216.44	3155.00
216.92	3225.00
217.39	3150.00
217.87	3155.00
218.35	3224.00
218.82	3128.00
219.30	3164.00
219.77	3171.00
220.25	3183.00
220.73	3255.00
221.20	3195.00
221.68	3204.00
222.15	3142.00
222.63	3236.00
223.11	3180.00
223.58	3206.00
224.06	3158.00
224.53	3134.00
225.01	3120.00
225.49	3184.00
225.96	3124.00
226.44	3171.00
226.91	3229.00
227.39	3146.00
227.87	3222.00
228.34	3198.00
228.82	3222.00
229.29	3176.00
229.77	3165.00
230.24	3155.00
230.72	3197.00
231.20	3223.00
231.67	3200.00
232.15	3174.00
232.62	3132.00
233.10	3133.00
233.57	3227.00
234.05	3302.00
234.53	3189.00
235.00	3152.00
235.48	3162.00
235.95	3157.00
236.43	3191.00
236.90	3262.00
237.38	3155.00
237.85	3185.00
238.33	3180.00
238.80	3204.00
239.28	3190.00
239.75	3155.00
240.23	3169.00
240.71	3238.00
241.18	3163.00
241.66	3195.00
242.13	3198.00
242.61	3234.00
243.08	3143.00
243.56	3193.00
244.03	3145.00
244.51	3236.00
244.98	3164.00
245.46	3215.00
245.93	4630.00
246.41	3142.00
246.88	3160.00
247.36	3202.00
247.83	3155.00
248.31	3199.00
248.78	3147.00
249.26	3182.00
249.73	3232.00
250.21	3221.00
250.68	3219.00
251.16	3185.00
251.63	3262.00
252.10	3199.00
252.58	3166.00
253.05	3216.00
253.53	3225.00
254.00	3189.00
254.48	3161.00
254.95	3209.00
255.43	3223.00
255.90	3195.00
256.38	3187.00
256.85	3209.00
257.33	3212.00
257.80	3302.00
258.27	3199.00
258.75	3194.00
259.22	3183.00
259.70	3203.00
260.17	3232.00
260.65	3212.00
261.12	3185.00
261.59	3246.00
262.07	3171.00
262.54	3210.00
263.02	3206.00
263.49	3150.00
263.97	3233.00
264.44	3240.00
264.91	3187.00
265.39	3188.00
265.86	3237.00
266.34	3222.00
266.81	3195.00
267.28	3172.00
267.76	3190.00
268.23	3188.00
268.71	3125.00
269.18	3134.00
269.65	3146.00
270.13	3174.00
270.60	3202.00
271.08	3193.00
271.55	3204.00
272.02	3169.00
272.50	3207.00
272.97	3138.00
273.44	3197.00
273.92	3254.00
274.39	3213.00
274.87	3207.00
275.34	3157.00
275.81	3164.00
276.29	3168.00
276.76	3170.00
277.23	3102.00
277.71	3111.00
278.18	3062.00
278.65	3256.00
279.13	3103.00
279.60	3136.00
280.07	3410.00
280.55	3407.00
281.02	3458.00
281.50	3248.00
281.97	3301.00
282.44	3248.00
282.91	3221.00
283.39	3246.00
283.86	3206.00
284.33	3194.00
284.81	3226.00
285.28	3223.00
285.75	3218.00
286.23	3222.00
286.70	3138.00
287.17	3200.00
287.65	3235.00
288.12	3195.00
288.59	3214.00
289.07	3136.00
289.54	3237.00
290.01	3154.00
290.48	3190.00
290.96	3170.00
291.43	3229.00
291.90	3275.00
292.38	3180.00
292.85	3242.00
293.32	3162.00
293.79	3221.00
294.27	3223.00
294.74	3169.00
295.21	3191.00
295.69	3209.00
296.16	3271.00
296.63	3263.00
297.10	3249.00
297.58	3221.00
298.05	3225.00
298.52	3186.00
298.99	3276.00
299.47	3221.00
299.94	3211.00
300.41	3219.00
300.88	3206.00
301.36	3242.00
301.83	3203.00
302.30	3178.00
302.77	3240.00
303.25	3231.00
303.72	3196.00
304.19	3192.00
304.66	3189.00
305.13	3242.00
305.61	3246.00
306.08	3191.00
306.55	3229.00
307.02	3192.00
307.49	3189.00
307.97	3194.00
308.44	3202.00
308.91	3233.00
309.38	3259.00
309.86	3214.00
310.33	3212.00
310.80	3237.00
311.27	3207.00
311.74	3256.00
312.21	3205.00
312.69	3306.00
313.16	3166.00
313.63	3170.00
314.10	3222.00
314.57	3171.00
315.05	3195.00
315.52	3243.00
315.99	3293.00
316.46	3206.00
316.93	3224.00
317.40	3215.00
317.88	3327.00
318.35	3228.00
318.82	3250.00
319.29	3174.00
319.76	3258.00
320.23	3324.00
320.70	3255.00
321.18	3199.00
321.65	3181.00
322.12	3216.00
322.59	3320.00
323.06	3228.00
323.53	3317.00
324.00	3183.00
324.48	3235.00
324.95	3219.00
325.42	3223.00
325.89	3238.00
326.36	3235.00
326.83	3224.00
327.30	3245.00
327.77	3269.00
328.24	3223.00
328.72	3235.00
329.19	3250.00
329.66	3220.00
330.13	3190.00
330.60	3252.00
331.07	3198.00
331.54	3306.00
332.01	3215.00
332.48	3310.00
332.95	3288.00
333.43	3252.00
333.90	3290.00
334.37	3232.00
334.84	3268.00
335.31	3368.00
335.78	3228.00
336.25	3236.00
336.72	3217.00
337.19	3268.00
337.66	3220.00
338.13	3235.00
338.60	3307.00
339.07	3251.00
339.54	3209.00
340.01	3191.00
340.49	3222.00
340.96	3250.00
341.43	3310.00
341.90	3190.00
342.37	3259.00
342.84	3250.00
343.31	3250.00
343.78	3198.00
344.25	3234.00
344.72	3205.00
345.19	3224.00
345.66	3224.00
346.13	3235.00
346.60	3181.00
347.07	3303.00
347.54	3241.00
348.01	3234.00
348.48	3225.00
348.95	3176.00
349.42	3201.00
349.89	3306.00
350.36	3221.00
350.83	3212.00
351.30	3241.00
351.77	3332.00
352.24	3278.00
352.71	3251.00
353.18	3240.00
353.65	3244.00
354.12	3219.00
354.59	3264.00
355.06	3259.00
355.53	3282.00
356.00	3211.00
356.47	3270.00
356.94	3200.00
357.41	3346.00
357.88	3329.00
358.35	3226.00
358.82	3198.00
359.28	3231.00
359.75	3241.00
360.22	3285.00
360.69	3315.00
361.16	3225.00
361.63	3256.00
362.10	3252.00
362.57	3221.00
363.04	3252.00
363.51	3312.00
363.98	3296.00
364.45	3231.00
364.92	3255.00
365.39	3211.00
365.86	3191.00
366.32	3287.00
366.79	3263.00
367.26	4109.00
367.73	3256.00
368.20	3229.00
368.67	3255.00
369.14	3220.00
369.61	3303.00
370.08	3195.00
370.55	3210.00
371.02	3734.00
371.48	3272.00
371.95	3214.00
372.42	3182.00
372.89	3242.00
373.36	3264.00
373.83	3167.00
374.30	3257.00
374.77	3287.00
375.23	3225.00
375.70	3306.00
376.17	3212.00
376.64	3183.00
377.11	3195.00
377.58	3237.00
378.05	3237.00
378.51	3250.00
378.98	3224.00
379.45	3242.00
379.92	3262.00
380.39	3347.00
380.86	3267.00
381.33	3273.00
381.79	3312.00
382.26	3184.00
382.73	3259.00
383.20	3217.00
383.67	3275.00
384.14	3248.00
384.60	3426.00
385.07	3253.00
385.54	3237.00
386.01	3223.00
386.48	3291.00
386.94	3214.00
387.41	3182.00
387.88	3240.00
388.35	3231.00
388.82	3296.00
389.28	3236.00
389.75	3275.00
390.22	3272.00
390.69	3252.00
391.16	3255.00
391.62	3309.00
392.09	3281.00
392.56	3236.00
393.03	3229.00
393.50	3324.00
393.96	3270.00
394.43	3310.00
394.90	3213.00
395.37	3274.00
395.83	3432.00
396.30	3190.00
396.77	3296.00
397.24	3273.00
397.70	3239.00
398.17	3259.00
398.64	3259.00
399.11	3220.00
399.57	3318.00
400.04	3237.00
400.51	3277.00
400.98	3258.00
401.44	3291.00
401.91	3283.00
402.38	3280.00
402.84	3245.00
403.31	3323.00
403.78	3255.00
404.25	3334.00
404.71	3347.00
405.18	3297.00
405.65	3266.00
406.12	3337.00
406.58	3307.00
407.05	3393.00
407.52	3316.00
407.98	3936.00
408.45	3314.00
408.92	3253.00
409.38	3326.00
409.85	3265.00
410.32	3353.00
410.78	3252.00
411.25	3365.00
411.72	3296.00
412.18	3267.00
412.65	3318.00
413.12	3296.00
413.59	3331.00
414.05	3299.00
414.52	3402.00
414.98	3319.00
415.45	3394.00
415.92	3352.00
416.38	3311.00
416.85	3397.00
417.32	3338.00
417.78	3320.00
418.25	3324.00
418.72	3293.00
419.18	3346.00
419.65	3275.00
420.12	3354.00
420.58	3305.00
421.05	3311.00
421.51	3301.00
421.98	3348.00
422.45	3287.00
422.91	3312.00
423.38	3344.00
423.85	3334.00
424.31	3286.00
424.78	3341.00
425.24	3322.00
425.71	3362.00
426.18	3277.00
426.64	3324.00
427.11	3329.00
427.57	3319.00
428.04	3293.00
428.51	3343.00
428.97	3304.00
429.44	3326.00
429.90	3298.00
430.37	3419.00
430.83	3237.00
431.30	3303.00
431.77	3334.00
432.23	3354.00
432.70	3318.00
433.16	3295.00
433.63	3308.00
434.09	3285.00
434.56	3330.00
435.03	3311.00
435.49	3321.00
435.96	3326.00
436.42	3311.00
436.89	3347.00
437.35	3278.00
437.82	3342.00
438.28	3301.00
438.75	3308.00
439.21	3485.00
439.68	3328.00
440.14	3378.00
440.61	3334.00
441.07	3299.00
441.54	3353.00
442.00	3450.00
442.47	3297.00
442.94	3331.00
443.40	3367.00
443.87	3257.00
444.33	3395.00
444.80	3349.00
445.26	3317.00
445.73	3310.00
446.19	3345.00
446.65	3331.00
447.12	3349.00
447.58	3344.00
448.05	3330.00
448.51	3362.00
448.98	3399.00
449.44	3355.00
449.91	3363.00
450.37	3338.00
450.84	3366.00
451.30	3409.00
451.77	3403.00
452.23	3285.00
452.70	3408.00
453.16	3327.00
453.62	3367.00
454.09	3381.00
454.55	3368.00
455.02	3327.00
455.48	3345.00
455.95	3407.00
456.41	3335.00
456.88	3397.00
457.34	3342.00
457.80	3339.00
458.27	3306.00
458.73	3353.00
459.20	3364.00
459.66	3342.00
460.13	3303.00
460.59	3279.00
461.05	3390.00
461.52	3368.00
461.98	3298.00
462.45	3235.00
462.91	3347.00
463.37	3313.00
463.84	3311.00
464.30	3305.00
464.76	3285.00
465.23	3263.00
465.69	3291.00
466.16	3260.00
466.62	3299.00
467.08	3254.00
467.55	3247.00
468.01	3288.00
468.48	3278.00
468.94	3226.00
469.40	3237.00
469.87	3242.00
470.33	3268.00
470.79	3216.00
471.26	3209.00
471.72	3192.00
472.18	3228.00
472.65	3219.00
473.11	3274.00
473.57	3199.00
474.04	3217.00
474.50	3241.00
474.96	3178.00
475.43	3258.00
475.89	3228.00
476.35	3211.00
476.82	3203.00
477.28	3224.00
477.74	3272.00
478.21	3241.00
478.67	3269.00
479.13	3224.00
479.59	3313.00
480.06	3245.00
480.52	3233.00
480.98	3202.00
481.45	3235.00
481.91	3263.00
482.37	3150.00
482.84	3224.00
483.30	3164.00
483.76	3184.00
484.22	3289.00
484.69	3207.00
485.15	3199.00
485.61	3101.00
486.07	3166.00
486.54	3142.00
487.00	3210.00
487.46	3162.00
487.92	3167.00
488.39	3211.00
488.85	3196.00
489.31	3213.00
489.77	3213.00
490.24	3169.00
490.70	3255.00
491.16	3135.00
491.62	3172.00
492.09	3151.00
492.55	3264.00
493.01	3281.00
493.47	3240.00
493.94	3263.00
494.40	3204.00
494.86	3246.00
495.32	3175.00
495.78	3270.00
496.25	3255.00
496.71	3261.00
497.17	3321.00
497.63	3303.00
498.09	3224.00
498.56	3261.00
499.02	3268.00
499.48	3388.00
499.94	3317.00
500.40	3267.00
500.87	3299.00
501.33	3300.00
501.79	3350.00
502.25	3331.00
502.71	3580.00
503.17	3346.00
503.64	3356.00
504.10	3372.00
504.56	3394.00
505.02	3427.00
505.48	3401.00
505.94	3461.00
506.40	3494.00
506.87	3463.00
507.33	3511.00
507.79	3519.00
508.25	3493.00
508.71	3536.00
509.17	3522.00
509.63	3572.00
510.10	3617.00
510.56	3616.00
511.02	3738.00
511.48	3730.00
511.94	3724.00
512.40	3671.00
512.86	3715.00
513.32	3820.00
513.78	3711.00
514.25	3874.00
514.71	4388.00
515.17	3816.00
515.63	3936.00
516.09	3959.00
516.55	3870.00
517.01	3987.00
517.47	3961.00
517.93	3985.00
518.39	4146.00
518.85	4056.00
519.32	4114.00
519.78	4171.00
520.24	4184.00
520.70	4284.00
521.16	4386.00
521.62	4418.00
522.08	4373.00
522.54	4412.00
523.00	4549.00
523.46	4612.00
523.92	4581.00
524.38	4723.00
524.84	4693.00
525.30	4669.00
525.76	4705.00
526.22	4622.00
526.68	4580.00
527.14	4708.00
527.60	4706.00
528.06	4867.00
528.52	4916.00
528.98	4922.00
529.44	4874.00
529.90	4952.00
530.36	5062.00
530.82	4985.00
531.28	5101.00
531.74	5044.00
532.20	4947.00
532.66	4955.00
533.12	5025.00
533.58	5057.00
534.04	5060.00
534.50	5079.00
534.96	5115.00
535.42	5205.00
535.88	5208.00
536.34	5187.00
536.80	5103.00
537.26	5212.00
537.72	5219.00
538.18	5249.00
538.64	5248.00
539.10	5201.00
539.56	5311.00
540.02	5127.00
540.48	5159.00
540.94	5120.00
541.40	5126.00
541.86	5258.00
542.32	5181.00
542.78	5158.00
543.24	5238.00
543.69	5179.00
544.15	5390.00
544.61	5269.00
545.07	5220.00
545.53	5230.00
545.99	5303.00
546.45	5224.00
546.91	5255.00
547.37	5186.00
547.83	5221.00
548.29	5209.00
548.74	5260.00
549.20	5211.00
549.66	5369.00
550.12	5236.00
550.58	5239.00
551.04	5265.00
551.50	5296.00
551.96	5365.00
552.42	5294.00
552.87	5189.00
553.33	5264.00
553.79	5256.00
554.25	5210.00
554.71	5340.00
555.17	5263.00
555.63	5349.00
556.08	5251.00
556.54	5252.00
557.00	5105.00
557.46	5199.00
557.92	5214.00
558.38	5113.00
558.83	5054.00
559.29	5056.00
559.75	5044.00
560.21	5125.00
560.67	5123.00
561.13	5047.00
561.58	5020.00
562.04	4983.00
562.50	4994.00
562.96	5052.00
563.42	4979.00
563.87	4930.00
564.33	5063.00
564.79	4920.00
565.25	4875.00
565.71	4888.00
566.16	4889.00
566.62	4850.00
567.08	4822.00
567.54	4844.00
568.00	4789.00
568.45	4687.00
568.91	4712.00
569.37	4741.00
569.83	4647.00
570.28	4613.00
570.74	4584.00
571.20	4609.00
571.66	4622.00
572.11	4555.00
572.57	4600.00
573.03	4499.00
573.49	4500.00
573.94	4517.00
574.40	4544.00
574.86	4434.00
575.32	4347.00
575.77	4406.00
576.23	4324.00
576.69	4494.00
577.15	4352.00
577.60	4338.00
578.06	4299.00
578.52	4358.00
578.97	4340.00
579.43	4278.00
579.89	4324.00
580.34	4289.00
580.80	4260.00
581.26	4279.00
581.72	4267.00
582.17	4285.00
582.63	4208.00
583.09	4248.00
583.54	4227.00
584.00	4201.00
584.46	4262.00
584.91	4212.00
585.37	4288.00
585.83	4143.00
586.28	4159.00
586.74	4198.00
587.20	4149.00
587.65	4181.00
588.11	4040.00
588.57	4055.00
589.02	3906.00
589.48	3957.00
589.94	4041.00
590.39	4048.00
590.85	4016.00
591.30	4033.00
591.76	4042.00
592.22	4007.00
592.67	4070.00
593.13	3987.00
593.59	3991.00
594.04	3994.00
594.50	3940.00
594.95	4042.00
595.41	3994.00
595.87	3988.00
596.32	4065.00
596.78	4010.00
597.23	4024.00
597.69	4048.00
598.15	3959.00
598.60	3999.00
599.06	4064.00
599.51	3967.00
599.97	3963.00
600.43	4012.00
600.88	3980.00
601.34	3998.00
601.79	3890.00
602.25	4021.00
602.70	3932.00
603.16	4001.00
603.61	3928.00
604.07	3901.00
604.53	3973.00
604.98	3907.00
605.44	3954.00
605.89	3911.00
606.35	3866.00
606.80	3886.00
607.26	3902.00
607.71	3851.00
608.17	3924.00
608.62	3867.00
609.08	3923.00
609.53	3880.00
609.99	3798.00
610.44	3756.00
610.90	3844.00
611.35	3784.00
611.81	3902.00
612.26	3780.00
612.72	3776.00
613.17	3883.00
613.63	3711.00
614.08	3695.00
614.54	3718.00
614.99	3706.00
615.45	3682.00
615.90	3670.00
616.36	3646.00
616.81	3669.00
617.27	3706.00
617.72	3708.00
618.18	3689.00
618.63	3647.00
619.09	3643.00
619.54	3702.00
619.99	3657.00
620.45	3746.00
620.90	3686.00
621.36	3636.00
621.81	3676.00
622.27	3723.00
622.72	3683.00
623.18	3645.00
623.63	3603.00
624.08	3686.00
624.54	3571.00
624.99	3587.00
625.45	3625.00
625.90	3550.00
626.35	3646.00
626.81	3623.00
627.26	3584.00
627.72	3644.00
628.17	3568.00
628.62	3531.00
629.08	3571.00
629.53	3607.00
629.99	3537.00
630.44	3616.00
630.89	3608.00
631.35	3594.00
631.80	3594.00
632.26	3611.00
632.71	3540.00
633.16	3543.00
633.62	3542.00
634.07	3584.00
634.52	3575.00
634.98	3563.00
635.43	3595.00
635.88	3551.00
636.34	3561.00
636.79	3553.00
637.24	3517.00
637.70	3551.00
638.15	3559.00
638.60	3514.00
639.06	3502.00
639.51	3451.00
639.96	3447.00
640.42	3514.00
640.87	3531.00
641.32	3412.00
641.78	3441.00
642.23	3439.00
642.68	3379.00
643.14	3399.00
643.59	3448.00
644.04	3382.00
644.49	3355.00
644.95	3383.00
645.40	3356.00
645.85	3385.00
646.31	3370.00
646.76	3361.00
647.21	3366.00
647.66	3352.00
648.12	3341.00
648.57	3317.00
649.02	3347.00
649.47	3334.00
649.93	3441.00
650.38	3280.00
650.83	3270.00
651.28	3308.00
651.74	3278.00
652.19	3249.00
652.64	3274.00
653.09	3256.00
653.55	3261.00
654.00	3294.00
654.45	3316.00
654.90	3221.00
655.35	3206.00
655.81	3241.00
656.26	3194.00
656.71	3183.00
657.16	3252.00
657.62	3257.00
658.07	3199.00
658.52	3225.00
658.97	3178.00
659.42	3374.00
659.88	3203.00
660.33	3234.00
660.78	3199.00
661.23	3183.00
661.68	3181.00
662.13	3164.00
662.59	3100.00
663.04	3188.00
663.49	3147.00
663.94	3142.00
664.39	3159.00
664.84	3146.00
665.30	3176.00
665.75	3107.00
666.20	3163.00
666.65	3171.00
667.10	3225.00
667.55	3190.00
668.00	3147.00
668.46	3163.00
668.91	3089.00
669.36	3214.00
669.81	3061.00
670.26	3124.00
670.71	3134.00
671.16	3131.00
671.61	3164.00
672.06	3213.00
672.52	3086.00
672.97	3119.00
673.42	3135.00
673.87	3232.00
674.32	3094.00
674.77	3139.00
675.22	3075.00
675.67	3096.00
676.12	3095.00
676.57	3094.00
677.02	3106.00
677.47	3075.00
677.93	3226.00
678.38	3112.00
678.83	3103.00
679.28	3076.00
679.73	3104.00
680.18	3108.00
680.63	3116.00
681.08	3060.00
681.53	3030.00
681.98	3105.00
682.43	3169.00
682.88	3154.00
683.33	3157.00
683.78	3141.00
684.23	3206.00
684.68	3165.00
685.13	3171.00
685.58	3187.00
686.03	3150.00
686.48	3140.00
686.93	3165.00
687.38	3140.00
687.83	3205.00
688.28	3177.00
688.73	3320.00
689.18	3263.00
689.63	3193.00
690.08	3269.00
690.53	3347.00
690.98	3331.00
691.43	3397.00
691.88	3383.00
692.33	3480.00
692.78	3510.00
693.23	3607.00
693.68	3627.00
694.13	3651.00
694.58	3705.00
695.03	3877.00
695.48	3772.00
695.93	3848.00
696.38	4003.00
696.83	3980.00
697.28	4027.00
697.72	4094.00
698.17	4099.00
698.62	4212.00
699.07	4299.00
699.52	4248.00
699.97	4347.00
700.42	4409.00
700.87	4543.00
701.32	4737.00
701.77	4584.00
702.22	4737.00
702.67	4724.00
703.11	4849.00
703.56	4916.00
704.01	4897.00
704.46	5061.00
704.91	5209.00
705.36	5231.00
705.81	5270.00
706.26	5259.00
706.70	5330.00
707.15	5445.00
707.60	5527.00
708.05	5565.00
708.50	5691.00
708.95	5768.00
709.40	5774.00
709.84	5862.00
710.29	5813.00
710.74	5893.00
711.19	5976.00
711.64	6049.00
712.09	6148.00
712.53	6166.00
712.98	6345.00
713.43	6272.00
713.88	6435.00
714.33	6471.00
714.78	6377.00
715.22	6387.00
715.67	6523.00
716.12	6494.00
716.57	6254.00
717.02	6129.00
717.46	5989.00
717.91	6061.00
718.36	6049.00
718.81	5955.00
719.26	5970.00
719.70	6037.00
720.15	6178.00
720.60	6336.00
721.05	6666.00
721.49	6933.00
721.94	7069.00
722.39	7100.00
722.84	6941.00
723.28	6796.00
723.73	6785.00
724.18	6701.00
724.63	6855.00
725.07	6819.00
725.52	7015.00
725.97	7069.00
726.42	7132.00
726.86	7305.00
727.31	7066.00
727.76	7130.00
728.21	7453.00
728.65	7394.00
729.10	7446.00
729.55	7470.00
729.99	7606.00
730.44	7681.00
730.89	7754.00
731.33	7866.00
731.78	8018.00
732.23	8299.00
732.68	8318.00
733.12	8492.00
733.57	8535.00
734.02	8738.00
734.46	8792.00
734.91	8892.00
735.36	8873.00
735.80	8989.00
736.25	8922.00
736.70	9021.00
737.14	9147.00
737.59	9167.00
738.04	9175.00
738.48	9126.00
738.93	9119.00
739.37	9162.00
739.82	9366.00
740.27	9510.00
740.71	9423.00
741.16	9514.00
741.61	9551.00
742.05	9571.00
742.50	9546.00
742.94	9610.00
743.39	9655.00
743.84	9806.00
744.28	9747.00
744.73	9851.00
745.18	9898.00
745.62	10004.00
746.07	9951.00
746.51	9793.00
746.96	9853.00
747.40	9818.00
747.85	9912.00
748.30	9873.00
748.74	9832.00
749.19	9836.00
749.63	10011.00
750.08	9953.00
750.52	9883.00
750.97	9905.00
751.42	9916.00
751.86	9943.00
752.31	9889.00
752.75	9950.00
753.20	9796.00
753.64	9896.00
754.09	9812.00
754.53	9845.00
754.98	9885.00
755.42	9935.00
755.87	9898.00
756.31	9812.00
756.76	9847.00
757.20	9865.00
757.65	9665.00
758.09	9623.00
758.54	9283.00
758.98	8712.00
759.43	7302.00
759.87	5923.00
760.32	5051.00
760.76	4826.00
761.21	5356.00
761.65	6179.00
762.10	6341.00
762.54	6201.00
762.99	5977.00
763.43	6046.00
763.88	6271.00
764.32	6576.00
764.77	7022.00
765.21	7358.00
765.66	7655.00
766.10	8110.00
766.54	8373.00
766.99	8545.00
767.43	8871.00
767.88	9041.00
768.32	9311.00
768.77	9298.00
769.21	9534.00
769.66	9618.00
770.10	9592.00
770.54	9668.00
770.99	9712.00
771.43	9714.00
771.88	9669.00
772.32	9644.00
772.76	9570.00
773.21	9616.00
773.65	9584.00
774.10	9511.00
774.54	9564.00
774.98	9608.00
775.43	9668.00
775.87	9780.00
776.31	9796.00
776.76	9686.00
777.20	9700.00
777.65	9683.00
778.09	9698.00
778.53	9622.00
778.98	9576.00
779.42	9604.00
779.86	9584.00
780.31	9560.00
780.75	9655.00
781.19	9614.00
781.64	9613.00
782.08	9657.00
782.52	9595.00
782.97	9514.00
783.41	9487.00
783.85	9439.00
784.30	9334.00
784.74	9393.00
785.18	9375.00
785.63	9282.00
786.07	9338.00
786.51	9470.00
786.95	9462.00
787.40	9279.00
787.84	9142.00
788.28	9252.00
788.73	9208.00
789.17	9037.00
789.61	9025.00
790.05	8979.00
790.50	8926.00
790.94	8902.00
791.38	9027.00
791.82	8916.00
792.27	9004.00
792.71	8969.00
793.15	9100.00
793.59	8996.00
794.04	8908.00
794.48	8879.00
794.92	8765.00
795.36	8786.00
795.81	8718.00
796.25	8639.00
796.69	8674.00
797.13	8864.00
797.57	8867.00
798.02	8936.00
798.46	8851.00
798.90	8941.00
799.34	8797.00
799.79	8758.00
800.23	8612.00
800.67	8539.00
801.11	8570.00
801.55	8569.00
801.99	8586.00
802.44	8613.00
802.88	8644.00
803.32	8679.00
803.76	8619.00
804.20	8724.00
804.64	8658.00
805.09	8586.00
805.53	8692.00
805.97	8681.00
806.41	8561.00
806.85	8554.00
807.29	8423.00
807.74	8397.00
808.18	8469.00
808.62	8398.00
809.06	8408.00
809.50	8288.00
809.94	8324.00
810.38	8466.00
810.82	8435.00
811.27	8405.00
811.71	8221.00
812.15	7976.00
812.59	7912.00
813.03	7897.00
813.47	7575.00
813.91	7480.00
814.35	7428.00
814.79	7315.00
815.23	7343.00
815.67	7101.00
816.12	7197.00
816.56	7095.00
817.00	7266.00
817.44	7196.00
817.88	7357.00
818.32	7161.00
818.76	7210.00
819.20	7229.00
819.64	7296.00
820.08	7331.00
820.52	7451.00
820.96	7647.00
821.40	7468.00
821.84	7389.00
822.28	7047.00
822.72	6950.00
823.16	6901.00
823.60	7127.00
824.04	7487.00
824.48	7608.00
824.92	7697.00
825.36	7560.00
825.80	7488.00
826.24	7515.00
826.68	7370.00
827.12	7471.00
827.56	7331.00
828.00	7419.00
828.44	7375.00
828.88	7501.00
829.32	7478.00
829.76	7537.00
830.20	7667.00
830.64	7534.00
831.08	7509.00
831.52	7471.00
831.96	7400.00
832.40	7246.00
832.84	7348.00
833.28	7327.00
833.72	7542.00
834.16	7636.00
834.60	7707.00
835.04	7799.00
835.48	7839.00
835.91	7787.00
836.35	7808.00
836.79	7694.00
837.23	7704.00
837.67	7618.00
838.11	7670.00
838.55	7698.00
838.99	7617.00
839.43	7738.00
839.87	7815.00
840.30	7912.00
840.74	7948.00
841.18	7861.00
841.62	7906.00
842.06	7908.00
842.50	7959.00
842.94	7915.00
843.38	7793.00
843.81	7743.00
844.25	7560.00
844.69	7534.00
845.13	7681.00
845.57	7647.00
846.01	7645.00
846.45	7703.00
846.88	7813.00
847.32	7764.00
847.76	7838.00
848.20	7906.00
848.64	7918.00
849.08	7767.00
849.51	7783.00
849.95	7581.00
850.39	7638.00
850.83	7801.00
851.27	7569.00
851.70	7510.00
852.14	7574.00
852.58	7470.00
853.02	7333.00
853.46	7127.00
853.89	7061.00
854.33	7144.00
854.77	7222.00
855.21	7622.00
855.65	7826.00
856.08	8004.00
856.52	7854.00
856.96	7774.00
857.40	7661.00
857.83	7505.00
858.27	7511.00
858.71	7411.00
859.15	7382.00
859.58	7444.00
860.02	7560.00
860.46	7563.00
860.89	7673.00
861.33	7663.00
861.77	7838.00
862.21	7827.00
862.64	7779.00
863.08	7806.00
863.52	7758.00
863.95	7655.00
864.39	7547.00
864.83	7419.00
865.27	7124.00
865.70	7103.00
866.14	7011.00
866.58	7080.00
867.01	7222.00
867.45	7432.00
867.89	7642.00
868.32	7641.00
868.76	7726.00
869.20	7732.00
869.63	7823.00
870.07	7739.00
870.51	7455.00
870.94	7401.00
871.38	7264.00
871.82	7223.00
872.25	7243.00
872.69	7231.00
873.13	7232.00
873.56	7337.00
874.00	7366.00
874.43	7428.00
874.87	7552.00
875.31	7659.00
875.74	7489.00
876.18	7547.00
876.61	7540.00
877.05	7532.00
877.49	7462.00
877.92	7335.00
878.36	7263.00
878.79	7146.00
879.23	7175.00
879.67	6991.00
880.10	6959.00
880.54	7130.00
880.97	7118.00
881.41	7367.00
881.84	7347.00
882.28	7460.00
882.72	7471.00
883.15	7583.00
883.59	7597.00
884.02	7576.00
884.46	7524.00
884.89	7522.00
885.33	7257.00
885.76	7157.00
886.20	7024.00
886.63	7076.00
887.07	6938.00
887.50	7015.00
887.94	7019.00
888.37	7038.00
888.81	7216.00
889.24	7082.00
889.68	7253.00
890.11	7309.00
890.55	7400.00
890.98	7355.00
891.42	7384.00
891.85	7288.00
892.29	7241.00
892.72	7111.00
893.16	6962.00
893.59	6841.00
894.03	6743.00
894.46	6534.00
894.90	6407.00
895.33	6271.00
895.77	6232.00
896.20	6211.00
896.63	6186.00
897.07	6268.00
897.50	6260.00
897.94	6262.00
898.37	6494.00
898.81	6196.00
899.24	5991.00
899.68	6232.00
900.11	6307.00
900.54	6217.00
900.98	6071.00
901.41	6006.00
901.85	6156.00
902.28	6102.00
902.71	6160.00
903.15	6305.00
903.58	6502.00
904.02	6492.00
904.45	6466.00
904.88	6449.00
905.32	6327.00
905.75	6365.00
906.18	6311.00
906.62	6301.00
907.05	6168.00
907.48	6131.00
907.92	6114.00
908.35	6137.00
908.79	6004.00
909.22	5903.00
909.65	5915.00
910.09	5965.00
910.52	6008.00
910.95	5818.00
911.38	5933.00
911.82	5793.00
912.25	5833.00
912.68	5932.00
913.12	5968.00
913.55	5936.00
913.98	5996.00
914.42	6166.00
914.85	6251.00
915.28	6067.00
915.72	6015.00
916.15	5889.00
916.58	5999.00
917.01	5852.00
917.45	5826.00
917.88	5828.00
918.31	5935.00
918.74	6040.00
919.18	6124.00
919.61	6158.00
920.04	6249.00
920.47	6271.00
920.91	6328.00
921.34	6287.00
921.77	6283.00
922.20	6281.00
922.64	6313.00
923.07	6311.00
923.50	6272.00
923.93	6070.00
924.37	6101.00
924.80	6014.00
925.23	6060.00
925.66	5930.00
926.09	5722.00
926.53	5681.00
926.96	5505.00
927.39	5514.00
927.82	5244.00
928.25	5069.00
928.69	5159.00
929.12	5060.00
929.55	4921.00
929.98	4900.00
930.41	4641.00
930.84	4584.00
931.28	4332.00
931.71	4314.00
932.14	4097.00
932.57	4120.00
933.00	3978.00
933.43	3905.00
933.86	3819.00
934.30	3746.00
934.73	3905.00
935.16	3828.00
935.59	3747.00
936.02	3795.00
936.45	3828.00
936.88	3769.00
937.31	3919.00
937.75	3987.00
938.18	4088.00
938.61	4129.00
939.04	4185.00
939.47	4167.00
939.90	4058.00
940.33	4093.00
940.76	3923.00
941.19	3862.00
941.62	3814.00
942.05	3797.00
942.48	3747.00
942.91	3602.00
943.35	3729.00
943.78	3718.00
944.21	3679.00
944.64	3801.00
945.07	3818.00
945.50	3746.00
945.93	3800.00
946.36	3903.00
946.79	3857.00
947.22	3948.00
947.65	3929.00
948.08	3800.00
948.51	3897.00
948.94	3988.00
949.37	3968.00
949.80	3894.00
950.23	3847.00
950.66	3938.00
951.09	3970.00
951.52	3867.00
951.95	3884.00
952.38	3912.00
952.81	4133.00
953.24	4066.00
953.67	4078.00
954.10	4077.00
954.53	4111.00
954.96	4120.00
955.39	4162.00
955.82	4202.00
956.25	4216.00
956.68	4347.00
957.11	4218.00
957.53	4247.00
957.96	4231.00
958.39	4208.00
958.82	4109.00
959.25	4136.00
959.68	4200.00
960.11	4288.00
960.54	4328.00
960.97	4410.00
961.40	4465.00
961.83	4478.00
962.26	4463.00
962.68	4646.00
963.11	4643.00
963.54	4690.00
963.97	4658.00
964.40	4641.00
964.83	4701.00
965.26	4777.00
965.69	4791.00
966.11	4754.00
966.54	4655.00
966.97	4774.00
967.40	4923.00
967.83	5006.00
968.26	4898.00
968.69	4850.00
969.11	4962.00
969.54	4873.00
969.97	4876.00
970.40	5009.00
970.83	4991.00
971.26	4991.00
971.68	5008.00
972.11	5016.00
972.54	5069.00
972.97	5065.00
973.40	4991.00
973.82	5010.00
974.25	4924.00
974.68	4858.00
975.11	4885.00
975.54	4787.00
975.96	4817.00
976.39	4760.00
976.82	4895.00
977.25	4847.00
977.67	4792.00
978.10	4773.00
978.53	4866.00
978.96	4971.00
979.38	5052.00
979.81	5019.00
980.24	5082.00
980.67	5185.00
981.09	5124.00
981.52	5243.00
981.95	5216.00
982.38	5245.00
982.80	5208.00
983.23	5332.00
983.66	5290.00
984.08	5214.00
984.51	5175.00
984.94	5226.00
985.37	5151.00
985.79	5062.00
986.22	5069.00
986.65	5034.00
987.07	5018.00
987.50	4996.00
987.93	5034.00
988.35	5083.00
988.78	5098.00
989.21	5100.00
989.63	5118.00
990.06	5177.00
990.49	5231.00
990.91	5305.00
991.34	5301.00
991.77	5231.00
992.19	5263.00
992.62	5209.00
993.05	5206.00
993.47	5224.00
993.90	5159.00
994.32	5138.00
994.75	5140.00
995.18	5048.00
995.60	4991.00
996.03	4955.00
996.45	4974.00
996.88	4961.00
997.31	4884.00
997.73	4954.00
998.16	4943.00
998.58	5021.00
999.01	4952.00
999.44	5008.00
999.86	5111.00
1000.29	5056.00
1000.71	5072.00
1001.14	5063.00
1001.56	5051.00
1001.99	4994.00
1002.41	5013.00
1002.84	4959.00
1003.27	4857.00
1003.69	4853.00
1004.12	4796.00
1004.54	4774.00
1004.97	4801.00
1005.39	4710.00
1005.82	4744.00
1006.24	4747.00
1006.67	4647.00
1007.09	4710.00
1007.52	4650.00
1007.94	4660.00
1008.37	4823.00
1008.79	4713.00
1009.22	4747.00
1009.64	4741.00
1010.07	4677.00
1010.49	4694.00
1010.92	4763.00
1011.34	4764.00
1011.77	4746.00
1012.19	4698.00
1012.62	4748.00
1013.04	4648.00
1013.46	4701.00
1013.89	4552.00
1014.31	4562.00
1014.74	4478.00
1015.16	4472.00
1015.59	4465.00
1016.01	4533.00
1016.44	4545.00
1016.86	5439.00
1017.28	4543.00
1017.71	4507.00
1018.13	4655.00
1018.56	4622.00
1018.98	4632.00
1019.40	4594.00
1019.83	4565.00
1020.25	4659.00
1020.68	4681.00
1021.10	4698.00
1021.52	4650.00
1021.95	4855.00
1022.37	4711.00
1022.79	4707.00
1023.22	4653.00
1023.64	4593.00
1024.07	4612.00
1024.49	4627.00
1024.91	4488.00
1025.34	4523.00
1025.76	4606.00
1026.18	4537.00
1026.61	4505.00
1027.03	4444.00
1027.45	4483.00
1027.88	4481.00
1028.30	4583.00
1028.72	4538.00
1029.15	4548.00
1029.57	4564.00
1029.99	4602.00
1030.41	4495.00
1030.84	4548.00
1031.26	4524.00
1031.68	4490.00
1032.11	4527.00
1032.53	4434.00
1032.95	4389.00
1033.37	4397.00
1033.80	4446.00
1034.22	4357.00
1034.64	4400.00
1035.06	4321.00
1035.49	4238.00
1035.91	4277.00
1036.33	4198.00
1036.75	4264.00
1037.18	4279.00
1037.60	4218.00
1038.02	4261.00
1038.44	4279.00
1038.87	4173.00
1039.29	4233.00
1039.71	4251.00
1040.13	4230.00
1040.55	4298.00
1040.98	4218.00
1041.40	4180.00
1041.82	4248.00
1042.24	4210.00
1042.66	4225.00
1043.09	4118.00
1043.51	4103.00
1043.93	4039.00
1044.35	4079.00
1044.77	4039.00
1045.20	4080.00
1045.62	4017.00
1046.04	3987.00
1046.46	4043.00
1046.88	3965.00
1047.30	4026.00
1047.72	3971.00
1048.15	3938.00
1048.57	3915.00
1048.99	3892.00
1049.41	3948.00
1049.83	3932.00
1050.25	3985.00
1050.67	3951.00
1051.09	3893.00
1051.52	3947.00
1051.94	3847.00
1052.36	3907.00
1052.78	3820.00
1053.20	3850.00
1053.62	3839.00
1054.04	3864.00
1054.46	3916.00
1054.88	3922.00
1055.30	3845.00
1055.72	3816.00
1056.14	3739.00
1056.57	3927.00
1056.99	3711.00
1057.41	3788.00
1057.83	3750.00
1058.25	3704.00
1058.67	3691.00
1059.09	3693.00
1059.51	3713.00
1059.93	3656.00
1060.35	3647.00
1060.77	3691.00
1061.19	3697.00
1061.61	3640.00
1062.03	3646.00
1062.45	3625.00
1062.87	3652.00
1063.29	3693.00
1063.71	3594.00
1064.13	3567.00
1064.55	3563.00
1064.97	3643.00
1065.39	3591.00
1065.81	3561.00
1066.23	3599.00
1066.65	3558.00
1067.07	3665.00
1067.49	3584.00
1067.91	3484.00
1068.33	3508.00
1068.75	3591.00
1069.17	3576.00
1069.59	3546.00
1070.00	3485.00
1070.42	3468.00
1070.84	3487.00
1071.26	3452.00
1071.68	3422.00
1072.10	3493.00
1072.52	3448.00
1072.94	3423.00
1073.36	3444.00
1073.78	3463.00
1074.20	3423.00
1074.62	3437.00
1075.03	3445.00
1075.45	3450.00
1075.87	3469.00
1076.29	3436.00
1076.71	3431.00
1077.13	3463.00
1077.55	3343.00
1077.97	3415.00
1078.38	3380.00
1078.80	3392.00
1079.22	3424.00
1079.64	3387.00
1080.06	3347.00
1080.48	3377.00
1080.89	3379.00
1081.31	3332.00
1081.73	3332.00
1082.15	3338.00
1082.57	3349.00
1082.99	3365.00
1083.40	3303.00
1083.82	3385.00
1084.24	3257.00
1084.66	3296.00
1085.08	3345.00
1085.49	3251.00
1085.91	3371.00
1086.33	4292.00
1086.75	3313.00
1087.17	3262.00
1087.58	3270.00
1088.00	3324.00
1088.42	3336.00
1088.84	3296.00
1089.25	3219.00
1089.67	3279.00
1090.09	3289.00
1090.51	3214.00
1090.92	3300.00
1091.34	3225.00
1091.76	3227.00
1092.18	3244.00
1092.59	3246.00
1093.01	3191.00
1093.43	3214.00
1093.84	3199.00
1094.26	3231.00
1094.68	3217.00
1095.10	3186.00
1095.51	3192.00
1095.93	3170.00
1096.35	3205.00
1096.76	3228.00
1097.18	3203.00
1097.60	3129.00
1098.01	3176.00
1098.43	3138.00
1098.85	3155.00
1099.26	3114.00
1099.68	3126.00
1100.10	3113.00
1100.51	3076.00
1100.93	3134.00
1101.35	3144.00
1101.76	3168.00
1102.18	3513.00
1102.60	3176.00
1103.01	3042.00
1103.43	3126.00
1103.84	3068.00
1104.26	3032.00
1104.68	3094.00
1105.09	3051.00
1105.51	3028.00
1105.92	3137.00
1106.34	3022.00
1106.76	3093.00
1107.17	3084.00
1107.59	3059.00
1108.00	3005.00
1108.42	3039.00
1108.83	3028.00
1109.25	3075.00
1109.67	3003.00
1110.08	3012.00
1110.50	2975.00
1110.91	3028.00
1111.33	2990.00
1111.74	3005.00
1112.16	3029.00
1112.57	3031.00
1112.99	2991.00
1113.41	2991.00
1113.82	2949.00
1114.24	2980.00
1114.65	2964.00
1115.07	2908.00
1115.48	2853.00
1115.90	2180.00
1116.31	2200.00
1116.73	2201.00
1117.14	2204.00
>>>>>End Processed Spectral Data<<<<<
