SpectraSuite Data File
++++++++++++++++++++++++++++++++++++
Date: Tue May 29 13:19:36 EEST 2018
User: CanSEE
Dark Spectrum Present: No
Reference Spectrum Present: No
Number of Sampled Component Spectra: 1
Spectrometers: MAYP11278
Integration Time (usec): 220000 (MAYP11278)
Spectra Averaged: 1 (MAYP11278)
Boxcar Smoothing: 0 (MAYP11278)
Correct for Electrical Dark: No (MAYP11278)
Strobe/Lamp Enabled: No (MAYP11278)
Correct for Detector Non-linearity: No (MAYP11278)
Correct for Stray Light: No (MAYP11278)
Number of Pixels in Processed Spectrum: 2068
>>>>>Begin Processed Spectral Data<<<<<
187.82	2356.00
188.30	2236.00
188.78	2221.00
189.26	2212.00
189.73	3432.00
190.21	3571.00
190.69	3730.00
191.17	3732.00
191.64	3788.00
192.12	3750.00
192.60	3688.00
193.07	3666.00
193.55	3788.00
194.03	3745.00
194.51	3753.00
194.98	3721.00
195.46	3800.00
195.94	3745.00
196.42	3694.00
196.89	3834.00
197.37	3740.00
197.85	3632.00
198.32	3704.00
198.80	3680.00
199.28	3754.00
199.76	3734.00
200.23	3723.00
200.71	3666.00
201.19	3735.00
201.66	3765.00
202.14	3742.00
202.62	3672.00
203.09	3743.00
203.57	3660.00
204.05	3765.00
204.53	3807.00
205.00	3708.00
205.48	3660.00
205.96	3804.00
206.43	3723.00
206.91	3739.00
207.39	3854.00
207.86	3712.00
208.34	3761.00
208.82	3730.00
209.29	3744.00
209.77	3779.00
210.25	3715.00
210.72	3708.00
211.20	3722.00
211.68	3738.00
212.15	3704.00
212.63	3846.00
213.11	3779.00
213.58	3725.00
214.06	3782.00
214.53	3758.00
215.01	3787.00
215.49	3767.00
215.96	3777.00
216.44	3736.00
216.92	3773.00
217.39	3700.00
217.87	3732.00
218.35	3725.00
218.82	3698.00
219.30	3690.00
219.77	3678.00
220.25	3762.00
220.73	3822.00
221.20	3691.00
221.68	3805.00
222.15	3706.00
222.63	3774.00
223.11	3678.00
223.58	3783.00
224.06	3718.00
224.53	3719.00
225.01	3680.00
225.49	3751.00
225.96	3666.00
226.44	3712.00
226.91	3766.00
227.39	3733.00
227.87	3771.00
228.34	3736.00
228.82	3794.00
229.29	3718.00
229.77	3741.00
230.24	3727.00
230.72	3790.00
231.20	3810.00
231.67	3763.00
232.15	3735.00
232.62	3707.00
233.10	3739.00
233.57	3794.00
234.05	3940.00
234.53	3774.00
235.00	3727.00
235.48	3748.00
235.95	3740.00
236.43	3796.00
236.90	3836.00
237.38	3754.00
237.85	3763.00
238.33	3790.00
238.80	3714.00
239.28	3745.00
239.75	3670.00
240.23	3715.00
240.71	3801.00
241.18	3750.00
241.66	3729.00
242.13	3784.00
242.61	3826.00
243.08	3706.00
243.56	3769.00
244.03	3748.00
244.51	3815.00
244.98	3710.00
245.46	3840.00
245.93	5838.00
246.41	3678.00
246.88	3788.00
247.36	3740.00
247.83	3758.00
248.31	3771.00
248.78	3700.00
249.26	3748.00
249.73	3821.00
250.21	3751.00
250.68	3809.00
251.16	3770.00
251.63	3860.00
252.10	3848.00
252.58	3688.00
253.05	3853.00
253.53	3735.00
254.00	3794.00
254.48	3768.00
254.95	3789.00
255.43	3778.00
255.90	3741.00
256.38	3778.00
256.85	3816.00
257.33	3794.00
257.80	3898.00
258.27	3764.00
258.75	3729.00
259.22	3784.00
259.70	3790.00
260.17	3793.00
260.65	3771.00
261.12	3746.00
261.59	3826.00
262.07	3732.00
262.54	3794.00
263.02	3760.00
263.49	3743.00
263.97	3811.00
264.44	3793.00
264.91	3747.00
265.39	3789.00
265.86	3791.00
266.34	3810.00
266.81	3749.00
267.28	3788.00
267.76	3762.00
268.23	3803.00
268.71	3690.00
269.18	3700.00
269.65	3717.00
270.13	3774.00
270.60	3802.00
271.08	3771.00
271.55	3781.00
272.02	3696.00
272.50	3710.00
272.97	3678.00
273.44	3788.00
273.92	3930.00
274.39	3816.00
274.87	3790.00
275.34	3713.00
275.81	3706.00
276.29	3750.00
276.76	3750.00
277.23	3704.00
277.71	3686.00
278.18	3636.00
278.65	3820.00
279.13	3694.00
279.60	3743.00
280.07	4020.00
280.55	4009.00
281.02	4064.00
281.50	3850.00
281.97	3899.00
282.44	3784.00
282.91	3785.00
283.39	3834.00
283.86	3769.00
284.33	3742.00
284.81	3794.00
285.28	3797.00
285.75	3804.00
286.23	3768.00
286.70	3761.00
287.17	3812.00
287.65	3892.00
288.12	3777.00
288.59	3775.00
289.07	3736.00
289.54	3840.00
290.01	3726.00
290.48	3782.00
290.96	3774.00
291.43	3812.00
291.90	3907.00
292.38	3749.00
292.85	3846.00
293.32	3768.00
293.79	3778.00
294.27	3843.00
294.74	3762.00
295.21	3752.00
295.69	3796.00
296.16	3908.00
296.63	3868.00
297.10	3829.00
297.58	3820.00
298.05	3818.00
298.52	3765.00
298.99	3876.00
299.47	3746.00
299.94	3796.00
300.41	3784.00
300.88	3839.00
301.36	3836.00
301.83	3857.00
302.30	3729.00
302.77	3851.00
303.25	3858.00
303.72	3732.00
304.19	3792.00
304.66	3736.00
305.13	3786.00
305.61	3820.00
306.08	3814.00
306.55	3796.00
307.02	3725.00
307.49	3796.00
307.97	3775.00
308.44	3764.00
308.91	3802.00
309.38	3860.00
309.86	3814.00
310.33	3794.00
310.80	3790.00
311.27	3780.00
311.74	3832.00
312.21	3772.00
312.69	3892.00
313.16	3747.00
313.63	3797.00
314.10	3841.00
314.57	3786.00
315.05	3764.00
315.52	3816.00
315.99	3853.00
316.46	3753.00
316.93	3830.00
317.40	3810.00
317.88	3942.00
318.35	3766.00
318.82	3788.00
319.29	3700.00
319.76	3856.00
320.23	3896.00
320.70	3832.00
321.18	3777.00
321.65	3737.00
322.12	3757.00
322.59	3863.00
323.06	3818.00
323.53	3958.00
324.00	3750.00
324.48	3869.00
324.95	3777.00
325.42	3777.00
325.89	3837.00
326.36	3824.00
326.83	3834.00
327.30	3822.00
327.77	3866.00
328.24	3886.00
328.72	3831.00
329.19	3774.00
329.66	3788.00
330.13	3797.00
330.60	3869.00
331.07	3843.00
331.54	3910.00
332.01	3802.00
332.48	3926.00
332.95	3938.00
333.43	3774.00
333.90	3928.00
334.37	3842.00
334.84	3838.00
335.31	3991.00
335.78	3782.00
336.25	3812.00
336.72	3769.00
337.19	3841.00
337.66	3803.00
338.13	3772.00
338.60	3884.00
339.07	3854.00
339.54	3716.00
340.01	3768.00
340.49	3676.00
340.96	3777.00
341.43	3834.00
341.90	3787.00
342.37	3768.00
342.84	3835.00
343.31	3758.00
343.78	3768.00
344.25	3786.00
344.72	3758.00
345.19	3781.00
345.66	3807.00
346.13	3773.00
346.60	3738.00
347.07	3860.00
347.54	3764.00
348.01	3868.00
348.48	3824.00
348.95	3744.00
349.42	3828.00
349.89	3830.00
350.36	3761.00
350.83	3737.00
351.30	3807.00
351.77	3884.00
352.24	3795.00
352.71	3756.00
353.18	3847.00
353.65	3842.00
354.12	3818.00
354.59	3824.00
355.06	3834.00
355.53	3892.00
356.00	3739.00
356.47	3902.00
356.94	3770.00
357.41	3962.00
357.88	3805.00
358.35	3774.00
358.82	3764.00
359.28	3776.00
359.75	3818.00
360.22	3899.00
360.69	3889.00
361.16	3785.00
361.63	3746.00
362.10	3810.00
362.57	3819.00
363.04	3828.00
363.51	3932.00
363.98	3832.00
364.45	3736.00
364.92	3834.00
365.39	3794.00
365.86	3750.00
366.32	3788.00
366.79	3855.00
367.26	4704.00
367.73	4196.00
368.20	3780.00
368.67	3843.00
369.14	3764.00
369.61	3842.00
370.08	3850.00
370.55	3790.00
371.02	4784.00
371.48	3876.00
371.95	3777.00
372.42	3732.00
372.89	3813.00
373.36	3834.00
373.83	3752.00
374.30	3773.00
374.77	3802.00
375.23	3754.00
375.70	3894.00
376.17	3750.00
376.64	3794.00
377.11	3744.00
377.58	3852.00
378.05	3835.00
378.51	3828.00
378.98	3800.00
379.45	3838.00
379.92	3778.00
380.39	3950.00
380.86	3813.00
381.33	3860.00
381.79	3870.00
382.26	3756.00
382.73	3802.00
383.20	3830.00
383.67	3844.00
384.14	3827.00
384.60	4040.00
385.07	3829.00
385.54	3798.00
386.01	3816.00
386.48	3898.00
386.94	3749.00
387.41	3729.00
387.88	3873.00
388.35	3856.00
388.82	3851.00
389.28	3748.00
389.75	3850.00
390.22	3795.00
390.69	3789.00
391.16	3806.00
391.62	3814.00
392.09	3844.00
392.56	3792.00
393.03	3786.00
393.50	3964.00
393.96	3828.00
394.43	3856.00
394.90	3749.00
395.37	3832.00
395.83	4074.00
396.30	3775.00
396.77	3827.00
397.24	3872.00
397.70	3742.00
398.17	3790.00
398.64	3791.00
399.11	3793.00
399.57	3846.00
400.04	3710.00
400.51	3768.00
400.98	3796.00
401.44	3860.00
401.91	3770.00
402.38	3802.00
402.84	3783.00
403.31	3842.00
403.78	3788.00
404.25	3892.00
404.71	3874.00
405.18	3890.00
405.65	3752.00
406.12	3840.00
406.58	3832.00
407.05	3856.00
407.52	3772.00
407.98	4670.00
408.45	3779.00
408.92	3728.00
409.38	3856.00
409.85	3730.00
410.32	3874.00
410.78	3756.00
411.25	3867.00
411.72	3805.00
412.18	3688.00
412.65	3850.00
413.12	3792.00
413.59	3767.00
414.05	3809.00
414.52	3857.00
414.98	3786.00
415.45	3865.00
415.92	3788.00
416.38	3824.00
416.85	3871.00
417.32	3826.00
417.78	3774.00
418.25	3776.00
418.72	3733.00
419.18	3844.00
419.65	3759.00
420.12	3828.00
420.58	3756.00
421.05	3802.00
421.51	3777.00
421.98	3788.00
422.45	3730.00
422.91	3795.00
423.38	3794.00
423.85	3809.00
424.31	3781.00
424.78	3844.00
425.24	3786.00
425.71	3886.00
426.18	3764.00
426.64	3826.00
427.11	3798.00
427.57	3818.00
428.04	3755.00
428.51	3825.00
428.97	3804.00
429.44	3803.00
429.90	3820.00
430.37	3930.00
430.83	3732.00
431.30	3818.00
431.77	3860.00
432.23	3887.00
432.70	3788.00
433.16	3735.00
433.63	3762.00
434.09	3770.00
434.56	3812.00
435.03	3731.00
435.49	3811.00
435.96	3759.00
436.42	3769.00
436.89	3830.00
437.35	3786.00
437.82	3855.00
438.28	3776.00
438.75	3773.00
439.21	4000.00
439.68	3860.00
440.14	3856.00
440.61	3869.00
441.07	3741.00
441.54	3834.00
442.00	3948.00
442.47	3732.00
442.94	3804.00
443.40	3817.00
443.87	3730.00
444.33	3868.00
444.80	3801.00
445.26	3784.00
445.73	3778.00
446.19	3812.00
446.65	3809.00
447.12	3820.00
447.58	3762.00
448.05	3756.00
448.51	3803.00
448.98	3793.00
449.44	3774.00
449.91	3752.00
450.37	3736.00
450.84	3718.00
451.30	3753.00
451.77	3813.00
452.23	3700.00
452.70	3824.00
453.16	3778.00
453.62	3718.00
454.09	3778.00
454.55	3785.00
455.02	3684.00
455.48	3770.00
455.95	3803.00
456.41	3698.00
456.88	3804.00
457.34	3747.00
457.80	3750.00
458.27	3688.00
458.73	3734.00
459.20	3744.00
459.66	3741.00
460.13	3676.00
460.59	3640.00
461.05	3769.00
461.52	3717.00
461.98	3626.00
462.45	3624.00
462.91	3734.00
463.37	3660.00
463.84	3686.00
464.30	3664.00
464.76	3622.00
465.23	3640.00
465.69	3704.00
466.16	3648.00
466.62	3686.00
467.08	3633.00
467.55	3638.00
468.01	3680.00
468.48	3668.00
468.94	3624.00
469.40	3582.00
469.87	3643.00
470.33	3630.00
470.79	3590.00
471.26	3576.00
471.72	3558.00
472.18	3556.00
472.65	3585.00
473.11	3666.00
473.57	3618.00
474.04	3597.00
474.50	3576.00
474.96	3542.00
475.43	3569.00
475.89	3604.00
476.35	3636.00
476.82	3625.00
477.28	3594.00
477.74	3654.00
478.21	3598.00
478.67	3628.00
479.13	3547.00
479.59	3638.00
480.06	3614.00
480.52	3590.00
480.98	3592.00
481.45	3584.00
481.91	3550.00
482.37	3516.00
482.84	3567.00
483.30	3539.00
483.76	3570.00
484.22	3611.00
484.69	3600.00
485.15	3518.00
485.61	3438.00
486.07	3554.00
486.54	3496.00
487.00	3598.00
487.46	3504.00
487.92	3484.00
488.39	3536.00
488.85	3597.00
489.31	3574.00
489.77	3640.00
490.24	3501.00
490.70	3586.00
491.16	3534.00
491.62	3537.00
492.09	3438.00
492.55	3625.00
493.01	3578.00
493.47	3567.00
493.94	3548.00
494.40	3544.00
494.86	3558.00
495.32	3501.00
495.78	3598.00
496.25	3534.00
496.71	3542.00
497.17	3646.00
497.63	3588.00
498.09	3485.00
498.56	3567.00
499.02	3549.00
499.48	3702.00
499.94	3568.00
500.40	3506.00
500.87	3604.00
501.33	3518.00
501.79	3630.00
502.25	3564.00
502.71	3912.00
503.17	3602.00
503.64	3628.00
504.10	3576.00
504.56	3592.00
505.02	3632.00
505.48	3546.00
505.94	3595.00
506.40	3670.00
506.87	3642.00
507.33	3646.00
507.79	3670.00
508.25	3602.00
508.71	3608.00
509.17	3594.00
509.63	3610.00
510.10	3723.00
510.56	3680.00
511.02	3734.00
511.48	3753.00
511.94	3666.00
512.40	3646.00
512.86	3739.00
513.32	3785.00
513.78	3646.00
514.25	3826.00
514.71	4530.00
515.17	3749.00
515.63	3811.00
516.09	3869.00
516.55	3858.00
517.01	3966.00
517.47	3922.00
517.93	3874.00
518.39	4104.00
518.85	3918.00
519.32	3938.00
519.78	3944.00
520.24	4002.00
520.70	4066.00
521.16	4166.00
521.62	4200.00
522.08	4146.00
522.54	4140.00
523.00	4264.00
523.46	4318.00
523.92	4243.00
524.38	4454.00
524.84	4324.00
525.30	4368.00
525.76	4436.00
526.22	4382.00
526.68	4386.00
527.14	4452.00
527.60	4476.00
528.06	4554.00
528.52	4595.00
528.98	4576.00
529.44	4558.00
529.90	4672.00
530.36	4737.00
530.82	4724.00
531.28	4811.00
531.74	4747.00
532.20	4712.00
532.66	4761.00
533.12	4790.00
533.58	4798.00
534.04	4771.00
534.50	4852.00
534.96	4796.00
535.42	4952.00
535.88	4892.00
536.34	4940.00
536.80	4866.00
537.26	5019.00
537.72	4946.00
538.18	4946.00
538.64	5116.00
539.10	4950.00
539.56	5286.00
540.02	4902.00
540.48	5022.00
540.94	4904.00
541.40	4982.00
541.86	5050.00
542.32	5007.00
542.78	5017.00
543.24	5154.00
543.69	5020.00
544.15	5146.00
544.61	5126.00
545.07	5070.00
545.53	5105.00
545.99	5164.00
546.45	5136.00
546.91	5108.00
547.37	5098.00
547.83	5109.00
548.29	5113.00
548.74	5156.00
549.20	5102.00
549.66	5329.00
550.12	5228.00
550.58	5158.00
551.04	5152.00
551.50	5218.00
551.96	5274.00
552.42	5184.00
552.87	5143.00
553.33	5263.00
553.79	5196.00
554.25	5158.00
554.71	5210.00
555.17	5224.00
555.63	5240.00
556.08	5206.00
556.54	5218.00
557.00	5076.00
557.46	5196.00
557.92	5184.00
558.38	5060.00
558.83	5063.00
559.29	4986.00
559.75	5033.00
560.21	4960.00
560.67	5032.00
561.13	5048.00
561.58	5007.00
562.04	4984.00
562.50	4970.00
562.96	4999.00
563.42	4972.00
563.87	4900.00
564.33	4944.00
564.79	4922.00
565.25	4904.00
565.71	4818.00
566.16	4822.00
566.62	4730.00
567.08	4781.00
567.54	4712.00
568.00	4749.00
568.45	4668.00
568.91	4664.00
569.37	4722.00
569.83	4608.00
570.28	4588.00
570.74	4544.00
571.20	4603.00
571.66	4508.00
572.11	4584.00
572.57	4594.00
573.03	4462.00
573.49	4412.00
573.94	4503.00
574.40	4486.00
574.86	4454.00
575.32	4338.00
575.77	4374.00
576.23	4283.00
576.69	4377.00
577.15	4301.00
577.60	4262.00
578.06	4230.00
578.52	4286.00
578.97	4312.00
579.43	4222.00
579.89	4276.00
580.34	4283.00
580.80	4244.00
581.26	4240.00
581.72	4216.00
582.17	4220.00
582.63	4130.00
583.09	4200.00
583.54	4222.00
584.00	4222.00
584.46	4228.00
584.91	4114.00
585.37	4254.00
585.83	4108.00
586.28	4134.00
586.74	4130.00
587.20	4150.00
587.65	4218.00
588.11	4098.00
588.57	4070.00
589.02	4057.00
589.48	3971.00
589.94	4086.00
590.39	4114.00
590.85	4033.00
591.30	4050.00
591.76	4144.00
592.22	4050.00
592.67	4052.00
593.13	4011.00
593.59	4088.00
594.04	4057.00
594.50	4018.00
594.95	4124.00
595.41	4033.00
595.87	4040.00
596.32	4107.00
596.78	4066.00
597.23	4114.00
597.69	4058.00
598.15	3940.00
598.60	4082.00
599.06	4124.00
599.51	3998.00
599.97	4022.00
600.43	4036.00
600.88	4036.00
601.34	4074.00
601.79	3964.00
602.25	4174.00
602.70	3995.00
603.16	3983.00
603.61	3972.00
604.07	3930.00
604.53	4074.00
604.98	3930.00
605.44	3994.00
605.89	3984.00
606.35	3896.00
606.80	3926.00
607.26	3962.00
607.71	3958.00
608.17	3966.00
608.62	3988.00
609.08	4041.00
609.53	4000.00
609.99	3928.00
610.44	3942.00
610.90	3895.00
611.35	3842.00
611.81	4074.00
612.26	3898.00
612.72	3902.00
613.17	3992.00
613.63	3796.00
614.08	3864.00
614.54	3814.00
614.99	3834.00
615.45	3828.00
615.90	3869.00
616.36	3792.00
616.81	3790.00
617.27	3838.00
617.72	3884.00
618.18	3812.00
618.63	3862.00
619.09	3820.00
619.54	3891.00
619.99	3823.00
620.45	3859.00
620.90	3889.00
621.36	3787.00
621.81	3851.00
622.27	3872.00
622.72	3873.00
623.18	3823.00
623.63	3747.00
624.08	3844.00
624.54	3794.00
624.99	3784.00
625.45	3798.00
625.90	3759.00
626.35	3776.00
626.81	3814.00
627.26	3738.00
627.72	3838.00
628.17	3817.00
628.62	3664.00
629.08	3808.00
629.53	3794.00
629.99	3783.00
630.44	3828.00
630.89	3766.00
631.35	3847.00
631.80	3792.00
632.26	3832.00
632.71	3791.00
633.16	3782.00
633.62	3729.00
634.07	3782.00
634.52	3727.00
634.98	3733.00
635.43	3738.00
635.88	3674.00
636.34	3722.00
636.79	3766.00
637.24	3702.00
637.70	3814.00
638.15	3782.00
638.60	3732.00
639.06	3739.00
639.51	3698.00
639.96	3640.00
640.42	3725.00
640.87	3767.00
641.32	3638.00
641.78	3696.00
642.23	3678.00
642.68	3680.00
643.14	3646.00
643.59	3719.00
644.04	3656.00
644.49	3670.00
644.95	3641.00
645.40	3632.00
645.85	3674.00
646.31	3644.00
646.76	3684.00
647.21	3688.00
647.66	3678.00
648.12	3645.00
648.57	3555.00
649.02	3704.00
649.47	3662.00
649.93	3864.00
650.38	3617.00
650.83	3588.00
651.28	3608.00
651.74	3599.00
652.19	3590.00
652.64	3620.00
653.09	3604.00
653.55	3600.00
654.00	3601.00
654.45	3647.00
654.90	3613.00
655.35	3551.00
655.81	3662.00
656.26	3563.00
656.71	3604.00
657.16	3651.00
657.62	3634.00
658.07	3590.00
658.52	3613.00
658.97	3562.00
659.42	3842.00
659.88	3580.00
660.33	3646.00
660.78	3624.00
661.23	3558.00
661.68	3610.00
662.13	3560.00
662.59	3502.00
663.04	3640.00
663.49	3585.00
663.94	3558.00
664.39	3566.00
664.84	3584.00
665.30	3595.00
665.75	3536.00
666.20	3583.00
666.65	3597.00
667.10	3704.00
667.55	3656.00
668.00	3532.00
668.46	3618.00
668.91	3552.00
669.36	3696.00
669.81	3483.00
670.26	3536.00
670.71	3640.00
671.16	3586.00
671.61	3672.00
672.06	3686.00
672.52	3524.00
672.97	3574.00
673.42	3672.00
673.87	3766.00
674.32	3572.00
674.77	3566.00
675.22	3479.00
675.67	3501.00
676.12	3586.00
676.57	3582.00
677.02	3604.00
677.47	3553.00
677.93	3740.00
678.38	3551.00
678.83	3531.00
679.28	3570.00
679.73	3554.00
680.18	3531.00
680.63	3554.00
681.08	3509.00
681.53	3496.00
681.98	3523.00
682.43	3624.00
682.88	3604.00
683.33	3611.00
683.78	3612.00
684.23	3639.00
684.68	3604.00
685.13	3634.00
685.58	3608.00
686.03	3548.00
686.48	3568.00
686.93	3658.00
687.38	3622.00
687.83	3640.00
688.28	3624.00
688.73	3806.00
689.18	3692.00
689.63	3570.00
690.08	3632.00
690.53	3731.00
690.98	3694.00
691.43	3780.00
691.88	3745.00
692.33	3748.00
692.78	3838.00
693.23	3920.00
693.68	3958.00
694.13	4001.00
694.58	4039.00
695.03	4328.00
695.48	4120.00
695.93	4302.00
696.38	4398.00
696.83	4418.00
697.28	4474.00
697.72	4574.00
698.17	4644.00
698.62	4793.00
699.07	4952.00
699.52	4924.00
699.97	5048.00
700.42	5198.00
700.87	5407.00
701.32	5670.00
701.77	5506.00
702.22	5786.00
702.67	5770.00
703.11	6022.00
703.56	6266.00
704.01	6327.00
704.46	6564.00
704.91	6750.00
705.36	6948.00
705.81	7040.00
706.26	7206.00
706.70	7340.00
707.15	7610.00
707.60	7728.00
708.05	7958.00
708.50	8246.00
708.95	8447.00
709.40	8508.00
709.84	8736.00
710.29	8864.00
710.74	9066.00
711.19	9380.00
711.64	9574.00
712.09	9842.00
712.53	10028.00
712.98	10308.00
713.43	10470.00
713.88	10610.00
714.33	10899.00
714.78	10978.00
715.22	11215.00
715.67	11470.00
716.12	11332.00
716.57	11354.00
717.02	11134.00
717.46	11038.00
717.91	11176.00
718.36	11281.00
718.81	11223.00
719.26	11421.00
719.70	11814.00
720.15	12036.00
720.60	12742.00
721.05	13614.00
721.49	14132.00
721.94	14712.00
722.39	14724.00
722.84	14694.00
723.28	14404.00
723.73	14564.00
724.18	14690.00
724.63	15148.00
725.07	15290.00
725.52	15836.00
725.97	16180.00
726.42	16528.00
726.86	16974.00
727.31	16984.00
727.76	17240.00
728.21	17873.00
728.65	17815.00
729.10	18074.00
729.55	18628.00
729.99	19136.00
730.44	19446.00
730.89	19956.00
731.33	20560.00
731.78	20960.00
732.23	21759.00
732.68	22404.00
733.12	22840.00
733.57	23352.00
734.02	23892.00
734.46	24402.00
734.91	24666.00
735.36	24906.00
735.80	25372.00
736.25	25462.00
736.70	26049.00
737.14	26546.00
737.59	26806.00
738.04	26860.00
738.48	26868.00
738.93	27098.00
739.37	27590.00
739.82	28403.00
740.27	28635.00
740.71	28566.00
741.16	28817.00
741.61	28880.00
742.05	29238.00
742.50	29788.00
742.94	29956.00
743.39	30350.00
743.84	30440.00
744.28	30684.00
744.73	30950.00
745.18	31440.00
745.62	31393.00
746.07	31842.00
746.51	31842.00
746.96	31838.00
747.40	31870.00
747.85	31908.00
748.30	31858.00
748.74	31730.00
749.19	31832.00
749.63	32280.00
750.08	32395.00
750.52	32224.00
750.97	32289.00
751.42	32484.00
751.86	32686.00
752.31	32648.00
752.75	32604.00
753.20	32516.00
753.64	32550.00
754.09	32745.00
754.53	32960.00
754.98	32894.00
755.42	33024.00
755.87	32801.00
756.31	32830.00
756.76	32566.00
757.20	32426.00
757.65	32100.00
758.09	31730.00
758.54	30638.00
758.98	27336.00
759.43	22102.00
759.87	16262.00
760.32	12994.00
760.76	13128.00
761.21	15831.00
761.65	18582.00
762.10	19346.00
762.54	18366.00
762.99	17648.00
763.43	17992.00
763.88	19248.00
764.32	20618.00
764.77	22199.00
765.21	23860.00
765.66	25162.00
766.10	26525.00
766.54	27583.00
766.99	28692.00
767.43	29764.00
767.88	30264.00
768.32	31123.00
768.77	31268.00
769.21	31737.00
769.66	32144.00
770.10	32556.00
770.54	32646.00
770.99	32645.00
771.43	32729.00
771.88	32513.00
772.32	32652.00
772.76	32526.00
773.21	32472.00
773.65	32488.00
774.10	32207.00
774.54	32142.00
774.98	32409.00
775.43	32541.00
775.87	33006.00
776.31	33016.00
776.76	32888.00
777.20	32682.00
777.65	32493.00
778.09	32403.00
778.53	32272.00
778.98	32136.00
779.42	32050.00
779.86	31942.00
780.31	31996.00
780.75	32195.00
781.19	32358.00
781.64	32666.00
782.08	32820.00
782.52	32116.00
782.97	31992.00
783.41	31881.00
783.85	31622.00
784.30	31430.00
784.74	31444.00
785.18	31198.00
785.63	31390.00
786.07	31400.00
786.51	31379.00
786.95	31404.00
787.40	31400.00
787.84	31190.00
788.28	31058.00
788.73	30778.00
789.17	30484.00
789.61	30324.00
790.05	30184.00
790.50	29858.00
790.94	29940.00
791.38	29938.00
791.82	29774.00
792.27	29986.00
792.71	29924.00
793.15	30204.00
793.59	30101.00
794.04	29910.00
794.48	29782.00
794.92	29578.00
795.36	29182.00
795.81	29030.00
796.25	29036.00
796.69	28944.00
797.13	29572.00
797.57	29426.00
798.02	29800.00
798.46	29928.00
798.90	29698.00
799.34	29450.00
799.79	29202.00
800.23	28812.00
800.67	28421.00
801.11	28620.00
801.55	28334.00
801.99	28294.00
802.44	28381.00
802.88	28468.00
803.32	28758.00
803.76	28858.00
804.20	28972.00
804.64	28902.00
805.09	29148.00
805.53	28929.00
805.97	28655.00
806.41	28224.00
806.85	28182.00
807.29	27942.00
807.74	27550.00
808.18	27845.00
808.62	27588.00
809.06	27488.00
809.50	27580.00
809.94	27660.00
810.38	27810.00
810.82	27880.00
811.27	27726.00
811.71	27149.00
812.15	26824.00
812.59	25910.00
813.03	25410.00
813.47	24630.00
813.91	23886.00
814.35	23672.00
814.79	23448.00
815.23	23201.00
815.67	22856.00
816.12	23190.00
816.56	22992.00
817.00	23174.00
817.44	23542.00
817.88	23430.00
818.32	22998.00
818.76	23323.00
819.20	23132.00
819.64	23515.00
820.08	23764.00
820.52	24200.00
820.96	24660.00
821.40	24164.00
821.84	23221.00
822.28	22262.00
822.72	21972.00
823.16	22164.00
823.60	23300.00
824.04	24757.00
824.48	24982.00
824.92	25198.00
825.36	24906.00
825.80	24473.00
826.24	24258.00
826.68	23960.00
827.12	24034.00
827.56	23556.00
828.00	23618.00
828.44	23892.00
828.88	24073.00
829.32	24344.00
829.76	24422.00
830.20	24942.00
830.64	24452.00
831.08	24459.00
831.52	24186.00
831.96	23817.00
832.40	23425.00
832.84	23820.00
833.28	23914.00
833.72	24428.00
834.16	24787.00
834.60	25418.00
835.04	25654.00
835.48	25989.00
835.91	25778.00
836.35	25692.00
836.79	25364.00
837.23	25524.00
837.67	24858.00
838.11	24854.00
838.55	25039.00
838.99	24960.00
839.43	25326.00
839.87	25568.00
840.30	25769.00
840.74	26293.00
841.18	26285.00
841.62	26516.00
842.06	26388.00
842.50	26326.00
842.94	25974.00
843.38	25826.00
843.81	25406.00
844.25	25101.00
844.69	24960.00
845.13	24747.00
845.57	24880.00
846.01	25084.00
846.45	25288.00
846.88	25576.00
847.32	25854.00
847.76	26230.00
848.20	26032.00
848.64	25837.00
849.08	25492.00
849.51	25596.00
849.95	24904.00
850.39	24976.00
850.83	25220.00
851.27	25092.00
851.70	24658.00
852.14	24541.00
852.58	24004.00
853.02	23258.00
853.46	22731.00
853.89	22732.00
854.33	22600.00
854.77	23482.00
855.21	25014.00
855.65	25808.00
856.08	26164.00
856.52	26110.00
856.96	25954.00
857.40	25572.00
857.83	24970.00
858.27	24632.00
858.71	24308.00
859.15	24307.00
859.58	24386.00
860.02	24584.00
860.46	24833.00
860.89	25418.00
861.33	25384.00
861.77	25769.00
862.21	25942.00
862.64	26020.00
863.08	26095.00
863.52	25812.00
863.95	25192.00
864.39	24934.00
864.83	23884.00
865.27	22874.00
865.70	22984.00
866.14	22295.00
866.58	22480.00
867.01	23505.00
867.45	24154.00
867.89	24822.00
868.32	25304.00
868.76	25662.00
869.20	25634.00
869.63	25662.00
870.07	25392.00
870.51	24714.00
870.94	24200.00
871.38	23773.00
871.82	23334.00
872.25	23224.00
872.69	23118.00
873.13	23350.00
873.56	23730.00
874.00	23768.00
874.43	24056.00
874.87	24446.00
875.31	24776.00
875.74	24780.00
876.18	25026.00
876.61	25052.00
877.05	24831.00
877.49	24330.00
877.92	24282.00
878.36	23788.00
878.79	23468.00
879.23	23021.00
879.67	22541.00
880.10	22685.00
880.54	22618.00
880.97	22838.00
881.41	23642.00
881.84	24126.00
882.28	24473.00
882.72	24942.00
883.15	25356.00
883.59	25054.00
884.02	25110.00
884.46	24950.00
884.89	24592.00
885.33	24178.00
885.76	23465.00
886.20	23112.00
886.63	22672.00
887.07	22616.00
887.50	22705.00
887.94	22733.00
888.37	22767.00
888.81	23316.00
889.24	23432.00
889.68	23598.00
890.11	23842.00
890.55	24196.00
890.98	24318.00
891.42	24302.00
891.85	24184.00
892.29	23926.00
892.72	23300.00
893.16	22778.00
893.59	22386.00
894.03	21578.00
894.46	20956.00
894.90	19877.00
895.33	19348.00
895.77	19436.00
896.20	19236.00
896.63	19306.00
897.07	19234.00
897.50	18966.00
897.94	19526.00
898.37	20104.00
898.81	18766.00
899.24	18960.00
899.68	19896.00
900.11	19582.00
900.54	19028.00
900.98	18884.00
901.41	18698.00
901.85	18880.00
902.28	18882.00
902.71	19138.00
903.15	19938.00
903.58	20324.00
904.02	20098.00
904.45	20106.00
904.88	19994.00
905.32	20032.00
905.75	19776.00
906.18	19112.00
906.62	19365.00
907.05	18944.00
907.48	18912.00
907.92	18782.00
908.35	18918.00
908.79	18580.00
909.22	18548.00
909.65	18154.00
910.09	18244.00
910.52	17840.00
910.95	18093.00
911.38	18066.00
911.82	17375.00
912.25	17782.00
912.68	18252.00
913.12	18099.00
913.55	18110.00
913.98	18829.00
914.42	19576.00
914.85	19610.00
915.28	18774.00
915.72	18680.00
916.15	18371.00
916.58	18492.00
917.01	17924.00
917.45	17473.00
917.88	17992.00
918.31	18210.00
918.74	18814.00
919.18	18953.00
919.61	19040.00
920.04	19298.00
920.47	19637.00
920.91	19566.00
921.34	19502.00
921.77	19464.00
922.20	20010.00
922.64	19946.00
923.07	19668.00
923.50	19478.00
923.93	19372.00
924.37	19136.00
924.80	18760.00
925.23	18601.00
925.66	18012.00
926.09	17232.00
926.53	16806.00
926.96	16186.00
927.39	15568.00
927.82	14826.00
928.25	14245.00
928.69	14146.00
929.12	13746.00
929.55	13152.00
929.98	12826.00
930.41	12172.00
930.84	11612.00
931.28	10785.00
931.71	10133.00
932.14	9216.00
932.57	9056.00
933.00	8673.00
933.43	8357.00
933.86	7843.00
934.30	7730.00
934.73	8462.00
935.16	7948.00
935.59	7657.00
936.02	8088.00
936.45	7792.00
936.88	7926.00
937.31	8580.00
937.75	8798.00
938.18	9150.00
938.61	9609.00
939.04	10036.00
939.47	9888.00
939.90	9368.00
940.33	9066.00
940.76	8554.00
941.19	8132.00
941.62	8030.00
942.05	7884.00
942.48	7200.00
942.91	7380.00
943.35	7631.00
943.78	7202.00
944.21	7301.00
944.64	7810.00
945.07	7813.00
945.50	7720.00
945.93	7884.00
946.36	8089.00
946.79	8344.00
947.22	8748.00
947.65	8430.00
948.08	8162.00
948.51	8788.00
948.94	8873.00
949.37	8554.00
949.80	8258.00
950.23	8404.00
950.66	8682.00
951.09	8684.00
951.52	8284.00
951.95	8396.00
952.38	8594.00
952.81	9218.00
953.24	9424.00
953.67	9500.00
954.10	9486.00
954.53	9794.00
954.96	9600.00
955.39	10134.00
955.82	10481.00
956.25	10108.00
956.68	10468.00
957.11	10494.00
957.53	10243.00
957.96	10184.00
958.39	9874.00
958.82	9611.00
959.25	9978.00
959.68	10228.00
960.11	10324.00
960.54	10616.00
960.97	11070.00
961.40	11440.00
961.83	11196.00
962.26	11512.00
962.68	12318.00
963.11	12330.00
963.54	12472.00
963.97	12654.00
964.40	12678.00
964.83	12912.00
965.26	12870.00
965.69	12788.00
966.11	12632.00
966.54	12796.00
966.97	13345.00
967.40	13368.00
967.83	13582.00
968.26	13396.00
968.69	13458.00
969.11	13606.00
969.54	13422.00
969.97	13680.00
970.40	13773.00
970.83	13814.00
971.26	13986.00
971.68	13894.00
972.11	14028.00
972.54	14274.00
972.97	14074.00
973.40	13900.00
973.82	14003.00
974.25	14038.00
974.68	13823.00
975.11	13698.00
975.54	13390.00
975.96	13176.00
976.39	13244.00
976.82	13168.00
977.25	13062.00
977.67	13007.00
978.10	13121.00
978.53	13315.00
978.96	13680.00
979.38	13820.00
979.81	14115.00
980.24	14452.00
980.67	14618.00
981.09	14813.00
981.52	14942.00
981.95	15106.00
982.38	14962.00
982.80	15056.00
983.23	15452.00
983.66	15550.00
984.08	15216.00
984.51	15050.00
984.94	14956.00
985.37	14802.00
985.79	14640.00
986.22	14184.00
986.65	14113.00
987.07	13996.00
987.50	14084.00
987.93	13961.00
988.35	14081.00
988.78	14122.00
989.21	14200.00
989.63	14530.00
990.06	14634.00
990.49	14826.00
990.91	15138.00
991.34	15176.00
991.77	15248.00
992.19	15208.00
992.62	15289.00
993.05	15088.00
993.47	15000.00
993.90	14984.00
994.32	14638.00
994.75	14446.00
995.18	14182.00
995.60	14042.00
996.03	13888.00
996.45	13721.00
996.88	13686.00
997.31	13534.00
997.73	13608.00
998.16	13682.00
998.58	13720.00
999.01	13666.00
999.44	13863.00
999.86	14124.00
1000.29	14170.00
1000.71	14320.00
1001.14	14220.00
1001.56	14349.00
1001.99	14104.00
1002.41	14001.00
1002.84	13768.00
1003.27	13564.00
1003.69	13368.00
1004.12	13028.00
1004.54	12967.00
1004.97	12682.00
1005.39	12568.00
1005.82	12536.00
1006.24	12390.00
1006.67	12452.00
1007.09	12354.00
1007.52	12352.00
1007.94	12402.00
1008.37	12594.00
1008.79	12508.00
1009.22	12536.00
1009.64	12488.00
1010.07	12512.00
1010.49	12776.00
1010.92	12630.00
1011.34	12670.00
1011.77	12624.00
1012.19	12558.00
1012.62	12548.00
1013.04	12312.00
1013.46	12230.00
1013.89	11822.00
1014.31	11914.00
1014.74	11628.00
1015.16	11464.00
1015.59	11266.00
1016.01	11440.00
1016.44	11417.00
1016.86	12698.00
1017.28	11424.00
1017.71	11518.00
1018.13	11764.00
1018.56	11839.00
1018.98	11832.00
1019.40	11900.00
1019.83	11988.00
1020.25	12006.00
1020.68	12138.00
1021.10	12400.00
1021.52	12270.00
1021.95	12526.00
1022.37	12441.00
1022.79	12324.00
1023.22	12190.00
1023.64	12148.00
1024.07	11962.00
1024.49	11882.00
1024.91	11654.00
1025.34	11616.00
1025.76	11588.00
1026.18	11332.00
1026.61	11360.00
1027.03	11306.00
1027.45	11326.00
1027.88	11228.00
1028.30	11372.00
1028.72	11451.00
1029.15	11524.00
1029.57	11602.00
1029.99	11642.00
1030.41	11421.00
1030.84	11659.00
1031.26	11562.00
1031.68	11265.00
1032.11	11312.00
1032.53	11260.00
1032.95	11201.00
1033.37	11022.00
1033.80	10920.00
1034.22	10690.00
1034.64	10748.00
1035.06	10410.00
1035.49	10316.00
1035.91	10270.00
1036.33	10022.00
1036.75	10124.00
1037.18	10040.00
1037.60	9906.00
1038.02	10084.00
1038.44	10060.00
1038.87	9954.00
1039.29	9970.00
1039.71	9970.00
1040.13	9974.00
1040.55	10113.00
1040.98	10088.00
1041.40	9977.00
1041.82	9962.00
1042.24	9847.00
1042.66	9889.00
1043.09	9560.00
1043.51	9524.00
1043.93	9363.00
1044.35	9224.00
1044.77	9181.00
1045.20	9134.00
1045.62	8834.00
1046.04	8996.00
1046.46	8852.00
1046.88	8733.00
1047.30	8698.00
1047.72	8562.00
1048.15	8574.00
1048.57	8430.00
1048.99	8540.00
1049.41	8498.00
1049.83	8444.00
1050.25	8630.00
1050.67	8426.00
1051.09	8338.00
1051.52	8351.00
1051.94	8252.00
1052.36	8326.00
1052.78	8172.00
1053.20	8288.00
1053.62	8154.00
1054.04	8117.00
1054.46	8146.00
1054.88	8078.00
1055.30	7963.00
1055.72	7855.00
1056.14	7796.00
1056.57	7961.00
1056.99	7516.00
1057.41	7596.00
1057.83	7434.00
1058.25	7442.00
1058.67	7294.00
1059.09	7282.00
1059.51	7305.00
1059.93	7144.00
1060.35	7100.00
1060.77	7118.00
1061.19	7134.00
1061.61	7016.00
1062.03	6978.00
1062.45	6923.00
1062.87	7024.00
1063.29	6996.00
1063.71	6900.00
1064.13	6849.00
1064.55	6813.00
1064.97	6864.00
1065.39	6820.00
1065.81	6807.00
1066.23	6730.00
1066.65	6730.00
1067.07	6730.00
1067.49	6550.00
1067.91	6424.00
1068.33	6440.00
1068.75	6480.00
1069.17	6456.00
1069.59	6359.00
1070.00	6273.00
1070.42	6306.00
1070.84	6154.00
1071.26	6079.00
1071.68	6086.00
1072.10	6128.00
1072.52	6099.00
1072.94	6038.00
1073.36	6027.00
1073.78	6042.00
1074.20	6053.00
1074.62	5976.00
1075.03	6024.00
1075.45	6010.00
1075.87	6051.00
1076.29	5956.00
1076.71	5998.00
1077.13	6006.00
1077.55	5857.00
1077.97	5894.00
1078.38	5768.00
1078.80	5732.00
1079.22	5732.00
1079.64	5646.00
1080.06	5604.00
1080.48	5608.00
1080.89	5550.00
1081.31	5522.00
1081.73	5500.00
1082.15	5492.00
1082.57	5484.00
1082.99	5396.00
1083.40	5416.00
1083.82	5436.00
1084.24	5310.00
1084.66	5346.00
1085.08	5326.00
1085.49	5281.00
1085.91	5284.00
1086.33	6666.00
1086.75	5296.00
1087.17	5272.00
1087.58	5284.00
1088.00	5216.00
1088.42	5278.00
1088.84	5256.00
1089.25	5112.00
1089.67	5146.00
1090.09	5038.00
1090.51	5019.00
1090.92	5036.00
1091.34	4976.00
1091.76	4920.00
1092.18	4884.00
1092.59	4854.00
1093.01	4866.00
1093.43	4799.00
1093.84	4748.00
1094.26	4774.00
1094.68	4692.00
1095.10	4650.00
1095.51	4730.00
1095.93	4650.00
1096.35	4716.00
1096.76	4764.00
1097.18	4694.00
1097.60	4596.00
1098.01	4628.00
1098.43	4564.00
1098.85	4596.00
1099.26	4516.00
1099.68	4535.00
1100.10	4468.00
1100.51	4420.00
1100.93	4456.00
1101.35	4390.00
1101.76	4374.00
1102.18	4940.00
1102.60	4392.00
1103.01	4216.00
1103.43	4308.00
1103.84	4283.00
1104.26	4216.00
1104.68	4276.00
1105.09	4220.00
1105.51	4196.00
1105.92	4230.00
1106.34	4156.00
1106.76	4146.00
1107.17	4128.00
1107.59	4140.00
1108.00	3996.00
1108.42	4010.00
1108.83	3969.00
1109.25	3978.00
1109.67	3944.00
1110.08	3986.00
1110.50	3912.00
1110.91	3910.00
1111.33	3872.00
1111.74	3881.00
1112.16	3867.00
1112.57	3891.00
1112.99	3793.00
1113.41	3810.00
1113.82	3771.00
1114.24	3745.00
1114.65	3715.00
1115.07	3558.00
1115.48	3410.00
1115.90	2190.00
1116.31	2214.00
1116.73	2214.00
1117.14	2221.00
>>>>>End Processed Spectral Data<<<<<
