SpectraSuite Data File
++++++++++++++++++++++++++++++++++++
Date: Tue May 29 12:59:36 EEST 2018
User: CanSEE
Dark Spectrum Present: No
Reference Spectrum Present: No
Number of Sampled Component Spectra: 1
Spectrometers: MAYP11278
Integration Time (usec): 250000 (MAYP11278)
Spectra Averaged: 1 (MAYP11278)
Boxcar Smoothing: 0 (MAYP11278)
Correct for Electrical Dark: No (MAYP11278)
Strobe/Lamp Enabled: No (MAYP11278)
Correct for Detector Non-linearity: No (MAYP11278)
Correct for Stray Light: No (MAYP11278)
Number of Pixels in Processed Spectrum: 2068
>>>>>Begin Processed Spectral Data<<<<<
187.82	2322.00
188.30	2223.00
188.78	2201.00
189.26	2201.00
189.73	2941.00
190.21	3062.00
190.69	3129.00
191.17	3126.00
191.64	3200.00
192.12	3120.00
192.60	3125.00
193.07	3090.00
193.55	3137.00
194.03	3151.00
194.51	3144.00
194.98	3139.00
195.46	3190.00
195.94	3170.00
196.42	3109.00
196.89	3223.00
197.37	3150.00
197.85	3116.00
198.32	3125.00
198.80	3151.00
199.28	3144.00
199.76	3152.00
200.23	3162.00
200.71	3164.00
201.19	3195.00
201.66	3164.00
202.14	3172.00
202.62	3110.00
203.09	3198.00
203.57	3114.00
204.05	3164.00
204.53	3202.00
205.00	3158.00
205.48	3118.00
205.96	3203.00
206.43	3136.00
206.91	3168.00
207.39	3272.00
207.86	3194.00
208.34	3199.00
208.82	3194.00
209.29	3189.00
209.77	3175.00
210.25	3175.00
210.72	3152.00
211.20	3220.00
211.68	3150.00
212.15	3179.00
212.63	3225.00
213.11	3159.00
213.58	3101.00
214.06	3261.00
214.53	3187.00
215.01	3218.00
215.49	3215.00
215.96	3203.00
216.44	3182.00
216.92	3178.00
217.39	3141.00
217.87	3193.00
218.35	3216.00
218.82	3136.00
219.30	3155.00
219.77	3127.00
220.25	3142.00
220.73	3248.00
221.20	3152.00
221.68	3212.00
222.15	3153.00
222.63	3184.00
223.11	3186.00
223.58	3206.00
224.06	3172.00
224.53	3155.00
225.01	3129.00
225.49	3169.00
225.96	3171.00
226.44	3161.00
226.91	3187.00
227.39	3166.00
227.87	3179.00
228.34	3169.00
228.82	3161.00
229.29	3166.00
229.77	3185.00
230.24	3134.00
230.72	3180.00
231.20	3204.00
231.67	3193.00
232.15	3166.00
232.62	3130.00
233.10	3173.00
233.57	3186.00
234.05	3281.00
234.53	3203.00
235.00	3140.00
235.48	3161.00
235.95	3164.00
236.43	3231.00
236.90	3242.00
237.38	3129.00
237.85	3170.00
238.33	3156.00
238.80	3166.00
239.28	3180.00
239.75	3140.00
240.23	3209.00
240.71	3223.00
241.18	3189.00
241.66	3170.00
242.13	3205.00
242.61	3211.00
243.08	3135.00
243.56	3136.00
244.03	3197.00
244.51	3228.00
244.98	3175.00
245.46	3267.00
245.93	4628.00
246.41	3116.00
246.88	3159.00
247.36	3192.00
247.83	3193.00
248.31	3230.00
248.78	3127.00
249.26	3215.00
249.73	3206.00
250.21	3155.00
250.68	3236.00
251.16	3179.00
251.63	3215.00
252.10	3242.00
252.58	3151.00
253.05	3178.00
253.53	3189.00
254.00	3186.00
254.48	3202.00
254.95	3217.00
255.43	3200.00
255.90	3142.00
256.38	3182.00
256.85	3205.00
257.33	3221.00
257.80	3309.00
258.27	3189.00
258.75	3197.00
259.22	3203.00
259.70	3223.00
260.17	3230.00
260.65	3165.00
261.12	3177.00
261.59	3245.00
262.07	3180.00
262.54	3222.00
263.02	3183.00
263.49	3162.00
263.97	3204.00
264.44	3241.00
264.91	3203.00
265.39	3170.00
265.86	3183.00
266.34	3197.00
266.81	3200.00
267.28	3167.00
267.76	3193.00
268.23	3221.00
268.71	3104.00
269.18	3124.00
269.65	3169.00
270.13	3209.00
270.60	3221.00
271.08	3155.00
271.55	3193.00
272.02	3153.00
272.50	3167.00
272.97	3136.00
273.44	3197.00
273.92	3321.00
274.39	3156.00
274.87	3197.00
275.34	3150.00
275.81	3160.00
276.29	3181.00
276.76	3187.00
277.23	3064.00
277.71	3078.00
278.18	3053.00
278.65	3225.00
279.13	3077.00
279.60	3141.00
280.07	3391.00
280.55	3390.00
281.02	3445.00
281.50	3275.00
281.97	3256.00
282.44	3213.00
282.91	3214.00
283.39	3215.00
283.86	3168.00
284.33	3132.00
284.81	3222.00
285.28	3186.00
285.75	3221.00
286.23	3213.00
286.70	3173.00
287.17	3218.00
287.65	3268.00
288.12	3185.00
288.59	3189.00
289.07	3133.00
289.54	3240.00
290.01	3158.00
290.48	3231.00
290.96	3192.00
291.43	3196.00
291.90	3258.00
292.38	3165.00
292.85	3245.00
293.32	3146.00
293.79	3184.00
294.27	3255.00
294.74	3177.00
295.21	3205.00
295.69	3221.00
296.16	3216.00
296.63	3268.00
297.10	3200.00
297.58	3238.00
298.05	3255.00
298.52	3205.00
298.99	3253.00
299.47	3154.00
299.94	3216.00
300.41	3172.00
300.88	3241.00
301.36	3275.00
301.83	3219.00
302.30	3175.00
302.77	3254.00
303.25	3236.00
303.72	3185.00
304.19	3188.00
304.66	3176.00
305.13	3220.00
305.61	3231.00
306.08	3204.00
306.55	3243.00
307.02	3203.00
307.49	3185.00
307.97	3206.00
308.44	3190.00
308.91	3238.00
309.38	3221.00
309.86	3223.00
310.33	3210.00
310.80	3223.00
311.27	3188.00
311.74	3272.00
312.21	3188.00
312.69	3290.00
313.16	3171.00
313.63	3163.00
314.10	3194.00
314.57	3195.00
315.05	3182.00
315.52	3238.00
315.99	3264.00
316.46	3227.00
316.93	3253.00
317.40	3208.00
317.88	3329.00
318.35	3196.00
318.82	3226.00
319.29	3162.00
319.76	3219.00
320.23	3292.00
320.70	3256.00
321.18	3214.00
321.65	3150.00
322.12	3180.00
322.59	3292.00
323.06	3197.00
323.53	3315.00
324.00	3184.00
324.48	3263.00
324.95	3254.00
325.42	3231.00
325.89	3208.00
326.36	3217.00
326.83	3253.00
327.30	3239.00
327.77	3229.00
328.24	3270.00
328.72	3233.00
329.19	3187.00
329.66	3225.00
330.13	3249.00
330.60	3240.00
331.07	3260.00
331.54	3304.00
332.01	3222.00
332.48	3294.00
332.95	3258.00
333.43	3257.00
333.90	3255.00
334.37	3233.00
334.84	3262.00
335.31	3374.00
335.78	3200.00
336.25	3236.00
336.72	3219.00
337.19	3285.00
337.66	3216.00
338.13	3210.00
338.60	3292.00
339.07	3250.00
339.54	3224.00
340.01	3206.00
340.49	3210.00
340.96	3252.00
341.43	3276.00
341.90	3202.00
342.37	3222.00
342.84	3227.00
343.31	3219.00
343.78	3215.00
344.25	3235.00
344.72	3192.00
345.19	3230.00
345.66	3256.00
346.13	3210.00
346.60	3203.00
347.07	3298.00
347.54	3196.00
348.01	3281.00
348.48	3246.00
348.95	3145.00
349.42	3229.00
349.89	3267.00
350.36	3241.00
350.83	3216.00
351.30	3250.00
351.77	3319.00
352.24	3227.00
352.71	3253.00
353.18	3227.00
353.65	3257.00
354.12	3249.00
354.59	3240.00
355.06	3251.00
355.53	3305.00
356.00	3212.00
356.47	3322.00
356.94	3206.00
357.41	3378.00
357.88	3282.00
358.35	3180.00
358.82	3199.00
359.28	3217.00
359.75	3224.00
360.22	3269.00
360.69	3269.00
361.16	3212.00
361.63	3209.00
362.10	3267.00
362.57	3235.00
363.04	3246.00
363.51	3317.00
363.98	3259.00
364.45	3207.00
364.92	3230.00
365.39	3216.00
365.86	3214.00
366.32	3251.00
366.79	3191.00
367.26	3823.00
367.73	3239.00
368.20	3183.00
368.67	3246.00
369.14	3197.00
369.61	3255.00
370.08	3280.00
370.55	3225.00
371.02	3785.00
371.48	3250.00
371.95	3206.00
372.42	3194.00
372.89	3232.00
373.36	3260.00
373.83	3196.00
374.30	3215.00
374.77	3232.00
375.23	3191.00
375.70	3254.00
376.17	3194.00
376.64	3203.00
377.11	3207.00
377.58	3256.00
378.05	3224.00
378.51	3227.00
378.98	3217.00
379.45	3214.00
379.92	3228.00
380.39	3342.00
380.86	3220.00
381.33	3308.00
381.79	3299.00
382.26	3189.00
382.73	3230.00
383.20	3269.00
383.67	3288.00
384.14	3258.00
384.60	3426.00
385.07	3268.00
385.54	3199.00
386.01	3256.00
386.48	3315.00
386.94	3216.00
387.41	3180.00
387.88	3290.00
388.35	3248.00
388.82	3315.00
389.28	3206.00
389.75	3299.00
390.22	3258.00
390.69	3270.00
391.16	3244.00
391.62	3228.00
392.09	3266.00
392.56	3230.00
393.03	3226.00
393.50	3350.00
393.96	3258.00
394.43	3281.00
394.90	3210.00
395.37	3303.00
395.83	3423.00
396.30	3189.00
396.77	3296.00
397.24	3320.00
397.70	3233.00
398.17	3254.00
398.64	3258.00
399.11	3239.00
399.57	3280.00
400.04	3205.00
400.51	3283.00
400.98	3254.00
401.44	3295.00
401.91	3289.00
402.38	3282.00
402.84	3222.00
403.31	3323.00
403.78	3296.00
404.25	3345.00
404.71	3344.00
405.18	3295.00
405.65	3236.00
406.12	3327.00
406.58	3296.00
407.05	3353.00
407.52	3260.00
407.98	3915.00
408.45	3280.00
408.92	3242.00
409.38	3361.00
409.85	3270.00
410.32	3356.00
410.78	3275.00
411.25	3346.00
411.72	3304.00
412.18	3251.00
412.65	3323.00
413.12	3302.00
413.59	3340.00
414.05	3310.00
414.52	3328.00
414.98	3265.00
415.45	3326.00
415.92	3299.00
416.38	3297.00
416.85	3355.00
417.32	3318.00
417.78	3325.00
418.25	3297.00
418.72	3322.00
419.18	3348.00
419.65	3252.00
420.12	3340.00
420.58	3258.00
421.05	3279.00
421.51	3282.00
421.98	3333.00
422.45	3245.00
422.91	3264.00
423.38	3292.00
423.85	3302.00
424.31	3310.00
424.78	3315.00
425.24	3281.00
425.71	3370.00
426.18	3300.00
426.64	3364.00
427.11	3344.00
427.57	3332.00
428.04	3254.00
428.51	3376.00
428.97	3314.00
429.44	3299.00
429.90	3326.00
430.37	3394.00
430.83	3239.00
431.30	3310.00
431.77	3370.00
432.23	3363.00
432.70	3305.00
433.16	3289.00
433.63	3299.00
434.09	3318.00
434.56	3318.00
435.03	3256.00
435.49	3334.00
435.96	3306.00
436.42	3267.00
436.89	3340.00
437.35	3312.00
437.82	3308.00
438.28	3282.00
438.75	3310.00
439.21	3475.00
439.68	3317.00
440.14	3319.00
440.61	3348.00
441.07	3262.00
441.54	3352.00
442.00	3411.00
442.47	3265.00
442.94	3317.00
443.40	3348.00
443.87	3271.00
444.33	3386.00
444.80	3346.00
445.26	3359.00
445.73	3278.00
446.19	3351.00
446.65	3314.00
447.12	3311.00
447.58	3302.00
448.05	3304.00
448.51	3340.00
448.98	3358.00
449.44	3333.00
449.91	3297.00
450.37	3295.00
450.84	3347.00
451.30	3341.00
451.77	3374.00
452.23	3317.00
452.70	3347.00
453.16	3325.00
453.62	3353.00
454.09	3356.00
454.55	3399.00
455.02	3316.00
455.48	3371.00
455.95	3372.00
456.41	3305.00
456.88	3377.00
457.34	3328.00
457.80	3334.00
458.27	3277.00
458.73	3337.00
459.20	3356.00
459.66	3340.00
460.13	3262.00
460.59	3269.00
461.05	3362.00
461.52	3331.00
461.98	3277.00
462.45	3268.00
462.91	3344.00
463.37	3268.00
463.84	3273.00
464.30	3255.00
464.76	3208.00
465.23	3282.00
465.69	3303.00
466.16	3287.00
466.62	3287.00
467.08	3266.00
467.55	3247.00
468.01	3246.00
468.48	3254.00
468.94	3231.00
469.40	3253.00
469.87	3244.00
470.33	3229.00
470.79	3209.00
471.26	3212.00
471.72	3199.00
472.18	3214.00
472.65	3215.00
473.11	3311.00
473.57	3213.00
474.04	3191.00
474.50	3240.00
474.96	3163.00
475.43	3232.00
475.89	3237.00
476.35	3228.00
476.82	3222.00
477.28	3212.00
477.74	3238.00
478.21	3174.00
478.67	3245.00
479.13	3183.00
479.59	3284.00
480.06	3221.00
480.52	3202.00
480.98	3196.00
481.45	3187.00
481.91	3204.00
482.37	3174.00
482.84	3183.00
483.30	3150.00
483.76	3188.00
484.22	3254.00
484.69	3207.00
485.15	3188.00
485.61	3092.00
486.07	3193.00
486.54	3105.00
487.00	3192.00
487.46	3128.00
487.92	3135.00
488.39	3176.00
488.85	3207.00
489.31	3183.00
489.77	3240.00
490.24	3144.00
490.70	3187.00
491.16	3170.00
491.62	3157.00
492.09	3159.00
492.55	3228.00
493.01	3239.00
493.47	3213.00
493.94	3226.00
494.40	3208.00
494.86	3212.00
495.32	3199.00
495.78	3232.00
496.25	3214.00
496.71	3251.00
497.17	3325.00
497.63	3295.00
498.09	3206.00
498.56	3290.00
499.02	3230.00
499.48	3380.00
499.94	3250.00
500.40	3252.00
500.87	3244.00
501.33	3226.00
501.79	3312.00
502.25	3298.00
502.71	3581.00
503.17	3334.00
503.64	3336.00
504.10	3295.00
504.56	3400.00
505.02	3398.00
505.48	3385.00
505.94	3419.00
506.40	3465.00
506.87	3479.00
507.33	3475.00
507.79	3472.00
508.25	3465.00
508.71	3453.00
509.17	3458.00
509.63	3544.00
510.10	3597.00
510.56	3588.00
511.02	3669.00
511.48	3690.00
511.94	3642.00
512.40	3634.00
512.86	3703.00
513.32	3730.00
513.78	3675.00
514.25	3808.00
514.71	4309.00
515.17	3823.00
515.63	3916.00
516.09	3879.00
516.55	3824.00
517.01	3942.00
517.47	3920.00
517.93	3968.00
518.39	4124.00
518.85	4078.00
519.32	4107.00
519.78	4104.00
520.24	4208.00
520.70	4284.00
521.16	4289.00
521.62	4321.00
522.08	4391.00
522.54	4382.00
523.00	4472.00
523.46	4539.00
523.92	4560.00
524.38	4680.00
524.84	4627.00
525.30	4647.00
525.76	4714.00
526.22	4617.00
526.68	4563.00
527.14	4666.00
527.60	4708.00
528.06	4810.00
528.52	4857.00
528.98	4899.00
529.44	4891.00
529.90	5049.00
530.36	4997.00
530.82	5031.00
531.28	5124.00
531.74	5084.00
532.20	4954.00
532.66	4977.00
533.12	4998.00
533.58	5039.00
534.04	5044.00
534.50	5026.00
534.96	5122.00
535.42	5157.00
535.88	5194.00
536.34	5216.00
536.80	5050.00
537.26	5176.00
537.72	5188.00
538.18	5227.00
538.64	5257.00
539.10	5169.00
539.56	5320.00
540.02	5039.00
540.48	5162.00
540.94	5168.00
541.40	5095.00
541.86	5259.00
542.32	5277.00
542.78	5223.00
543.24	5330.00
543.69	5235.00
544.15	5336.00
544.61	5264.00
545.07	5231.00
545.53	5257.00
545.99	5261.00
546.45	5225.00
546.91	5335.00
547.37	5274.00
547.83	5230.00
548.29	5242.00
548.74	5304.00
549.20	5356.00
549.66	5377.00
550.12	5245.00
550.58	5264.00
551.04	5355.00
551.50	5327.00
551.96	5379.00
552.42	5293.00
552.87	5276.00
553.33	5293.00
553.79	5283.00
554.25	5325.00
554.71	5330.00
555.17	5343.00
555.63	5353.00
556.08	5313.00
556.54	5219.00
557.00	5203.00
557.46	5173.00
557.92	5288.00
558.38	5189.00
558.83	5039.00
559.29	5113.00
559.75	5032.00
560.21	5045.00
560.67	5173.00
561.13	5136.00
561.58	5059.00
562.04	5079.00
562.50	5014.00
562.96	5057.00
563.42	5102.00
563.87	4950.00
564.33	4975.00
564.79	4955.00
565.25	4918.00
565.71	4896.00
566.16	4881.00
566.62	4877.00
567.08	4862.00
567.54	4851.00
568.00	4810.00
568.45	4740.00
568.91	4763.00
569.37	4752.00
569.83	4681.00
570.28	4622.00
570.74	4585.00
571.20	4694.00
571.66	4567.00
572.11	4619.00
572.57	4589.00
573.03	4584.00
573.49	4576.00
573.94	4549.00
574.40	4535.00
574.86	4490.00
575.32	4408.00
575.77	4445.00
576.23	4344.00
576.69	4447.00
577.15	4292.00
577.60	4352.00
578.06	4266.00
578.52	4378.00
578.97	4294.00
579.43	4294.00
579.89	4368.00
580.34	4321.00
580.80	4240.00
581.26	4294.00
581.72	4307.00
582.17	4267.00
582.63	4262.00
583.09	4235.00
583.54	4284.00
584.00	4217.00
584.46	4228.00
584.91	4143.00
585.37	4303.00
585.83	4155.00
586.28	4161.00
586.74	4171.00
587.20	4146.00
587.65	4157.00
588.11	4033.00
588.57	4069.00
589.02	4015.00
589.48	3983.00
589.94	4017.00
590.39	4092.00
590.85	4063.00
591.30	4097.00
591.76	4112.00
592.22	4001.00
592.67	4089.00
593.13	4043.00
593.59	4055.00
594.04	4033.00
594.50	3951.00
594.95	4047.00
595.41	3950.00
595.87	3960.00
596.32	4105.00
596.78	3999.00
597.23	4013.00
597.69	4001.00
598.15	3950.00
598.60	3982.00
599.06	4034.00
599.51	3921.00
599.97	3988.00
600.43	4011.00
600.88	3973.00
601.34	4024.00
601.79	3942.00
602.25	4032.00
602.70	3941.00
603.16	3926.00
603.61	3965.00
604.07	3922.00
604.53	3951.00
604.98	3932.00
605.44	3943.00
605.89	3933.00
606.35	3835.00
606.80	3879.00
607.26	3872.00
607.71	3904.00
608.17	3923.00
608.62	3824.00
609.08	3989.00
609.53	3921.00
609.99	3831.00
610.44	3802.00
610.90	3883.00
611.35	3759.00
611.81	3856.00
612.26	3768.00
612.72	3762.00
613.17	3889.00
613.63	3744.00
614.08	3716.00
614.54	3728.00
614.99	3737.00
615.45	3711.00
615.90	3706.00
616.36	3692.00
616.81	3660.00
617.27	3728.00
617.72	3701.00
618.18	3657.00
618.63	3701.00
619.09	3633.00
619.54	3651.00
619.99	3650.00
620.45	3686.00
620.90	3682.00
621.36	3671.00
621.81	3690.00
622.27	3707.00
622.72	3737.00
623.18	3577.00
623.63	3610.00
624.08	3671.00
624.54	3569.00
624.99	3607.00
625.45	3591.00
625.90	3603.00
626.35	3634.00
626.81	3672.00
627.26	3565.00
627.72	3586.00
628.17	3622.00
628.62	3579.00
629.08	3584.00
629.53	3606.00
629.99	3559.00
630.44	3632.00
630.89	3602.00
631.35	3618.00
631.80	3611.00
632.26	3654.00
632.71	3602.00
633.16	3567.00
633.62	3554.00
634.07	3571.00
634.52	3554.00
634.98	3547.00
635.43	3542.00
635.88	3509.00
636.34	3533.00
636.79	3577.00
637.24	3550.00
637.70	3577.00
638.15	3557.00
638.60	3494.00
639.06	3523.00
639.51	3524.00
639.96	3440.00
640.42	3516.00
640.87	3542.00
641.32	3434.00
641.78	3419.00
642.23	3441.00
642.68	3375.00
643.14	3383.00
643.59	3405.00
644.04	3387.00
644.49	3344.00
644.95	3344.00
645.40	3346.00
645.85	3334.00
646.31	3353.00
646.76	3336.00
647.21	3361.00
647.66	3331.00
648.12	3345.00
648.57	3304.00
649.02	3361.00
649.47	3298.00
649.93	3458.00
650.38	3286.00
650.83	3280.00
651.28	3254.00
651.74	3344.00
652.19	3268.00
652.64	3272.00
653.09	3299.00
653.55	3244.00
654.00	3273.00
654.45	3304.00
654.90	3224.00
655.35	3201.00
655.81	3259.00
656.26	3216.00
656.71	3204.00
657.16	3229.00
657.62	3292.00
658.07	3195.00
658.52	3226.00
658.97	3219.00
659.42	3403.00
659.88	3207.00
660.33	3218.00
660.78	3204.00
661.23	3162.00
661.68	3213.00
662.13	3169.00
662.59	3113.00
663.04	3174.00
663.49	3148.00
663.94	3166.00
664.39	3185.00
664.84	3132.00
665.30	3148.00
665.75	3113.00
666.20	3160.00
666.65	3129.00
667.10	3249.00
667.55	3181.00
668.00	3110.00
668.46	3131.00
668.91	3110.00
669.36	3235.00
669.81	3050.00
670.26	3100.00
670.71	3167.00
671.16	3123.00
671.61	3195.00
672.06	3182.00
672.52	3088.00
672.97	3103.00
673.42	3161.00
673.87	3217.00
674.32	3126.00
674.77	3096.00
675.22	3061.00
675.67	3089.00
676.12	3121.00
676.57	3085.00
677.02	3080.00
677.47	3115.00
677.93	3208.00
678.38	3102.00
678.83	3103.00
679.28	3107.00
679.73	3074.00
680.18	3111.00
680.63	3096.00
681.08	3056.00
681.53	3058.00
681.98	3087.00
682.43	3113.00
682.88	3139.00
683.33	3150.00
683.78	3122.00
684.23	3180.00
684.68	3154.00
685.13	3147.00
685.58	3153.00
686.03	3177.00
686.48	3151.00
686.93	3165.00
687.38	3128.00
687.83	3180.00
688.28	3186.00
688.73	3350.00
689.18	3254.00
689.63	3231.00
690.08	3269.00
690.53	3313.00
690.98	3331.00
691.43	3382.00
691.88	3390.00
692.33	3500.00
692.78	3493.00
693.23	3623.00
693.68	3630.00
694.13	3669.00
694.58	3686.00
695.03	3902.00
695.48	3847.00
695.93	3886.00
696.38	4021.00
696.83	4023.00
697.28	4102.00
697.72	4170.00
698.17	4156.00
698.62	4259.00
699.07	4357.00
699.52	4392.00
699.97	4476.00
700.42	4506.00
700.87	4638.00
701.32	4816.00
701.77	4728.00
702.22	4890.00
702.67	4831.00
703.11	4976.00
703.56	5077.00
704.01	5129.00
704.46	5327.00
704.91	5444.00
705.36	5471.00
705.81	5567.00
706.26	5568.00
706.70	5737.00
707.15	5717.00
707.60	5805.00
708.05	5902.00
708.50	6077.00
708.95	6085.00
709.40	6159.00
709.84	6203.00
710.29	6291.00
710.74	6367.00
711.19	6451.00
711.64	6515.00
712.09	6576.00
712.53	6754.00
712.98	6774.00
713.43	6827.00
713.88	6929.00
714.33	7037.00
714.78	6902.00
715.22	7014.00
715.67	7151.00
716.12	7100.00
716.57	6885.00
717.02	6685.00
717.46	6631.00
717.91	6646.00
718.36	6606.00
718.81	6576.00
719.26	6603.00
719.70	6679.00
720.15	6789.00
720.60	6903.00
721.05	7311.00
721.49	7697.00
721.94	7805.00
722.39	7799.00
722.84	7696.00
723.28	7494.00
723.73	7474.00
724.18	7478.00
724.63	7633.00
725.07	7673.00
725.52	7763.00
725.97	7859.00
726.42	8016.00
726.86	8188.00
727.31	7998.00
727.76	8140.00
728.21	8272.00
728.65	8314.00
729.10	8270.00
729.55	8442.00
729.99	8578.00
730.44	8630.00
730.89	8703.00
731.33	8977.00
731.78	9035.00
732.23	9367.00
732.68	9399.00
733.12	9655.00
733.57	9872.00
734.02	9971.00
734.46	10081.00
734.91	10009.00
735.36	10122.00
735.80	10272.00
736.25	10168.00
736.70	10252.00
737.14	10375.00
737.59	10517.00
738.04	10498.00
738.48	10473.00
738.93	10498.00
739.37	10593.00
739.82	10867.00
740.27	10833.00
740.71	10848.00
741.16	10831.00
741.61	10965.00
742.05	10944.00
742.50	11019.00
742.94	11118.00
743.39	11190.00
743.84	11171.00
744.28	11169.00
744.73	11305.00
745.18	11265.00
745.62	11375.00
746.07	11490.00
746.51	11398.00
746.96	11456.00
747.40	11363.00
747.85	11296.00
748.30	11412.00
748.74	11419.00
749.19	11297.00
749.63	11565.00
750.08	11537.00
750.52	11409.00
750.97	11337.00
751.42	11435.00
751.86	11437.00
752.31	11498.00
752.75	11469.00
753.20	11398.00
753.64	11405.00
754.09	11393.00
754.53	11516.00
754.98	11373.00
755.42	11369.00
755.87	11412.00
756.31	11408.00
756.76	11324.00
757.20	11330.00
757.65	11231.00
758.09	11059.00
758.54	10827.00
758.98	10085.00
759.43	8418.00
759.87	6635.00
760.32	5536.00
760.76	5256.00
761.21	5994.00
761.65	6901.00
762.10	7197.00
762.54	6992.00
762.99	6668.00
763.43	6754.00
763.88	7014.00
764.32	7435.00
764.77	8007.00
765.21	8371.00
765.66	8760.00
766.10	9228.00
766.54	9542.00
766.99	9975.00
767.43	10256.00
767.88	10437.00
768.32	10650.00
768.77	10791.00
769.21	10960.00
769.66	11005.00
770.10	11135.00
770.54	11320.00
770.99	11194.00
771.43	11312.00
771.88	11184.00
772.32	11180.00
772.76	11110.00
773.21	11100.00
773.65	11099.00
774.10	11164.00
774.54	11160.00
774.98	11076.00
775.43	11218.00
775.87	11274.00
776.31	11380.00
776.76	11283.00
777.20	11254.00
777.65	11155.00
778.09	11147.00
778.53	11053.00
778.98	11114.00
779.42	11189.00
779.86	11110.00
780.31	11120.00
780.75	11235.00
781.19	11225.00
781.64	11199.00
782.08	11274.00
782.52	11164.00
782.97	10979.00
783.41	10978.00
783.85	11020.00
784.30	10911.00
784.74	10790.00
785.18	10836.00
785.63	10851.00
786.07	10935.00
786.51	10865.00
786.95	10911.00
787.40	10812.00
787.84	10768.00
788.28	10623.00
788.73	10790.00
789.17	10557.00
789.61	10426.00
790.05	10503.00
790.50	10376.00
790.94	10379.00
791.38	10479.00
791.82	10303.00
792.27	10385.00
792.71	10408.00
793.15	10600.00
793.59	10508.00
794.04	10329.00
794.48	10277.00
794.92	10149.00
795.36	10098.00
795.81	10167.00
796.25	10060.00
796.69	10095.00
797.13	10221.00
797.57	10296.00
798.02	10297.00
798.46	10423.00
798.90	10313.00
799.34	10172.00
799.79	10255.00
800.23	10010.00
800.67	9956.00
801.11	9946.00
801.55	9931.00
801.99	9825.00
802.44	9968.00
802.88	10066.00
803.32	10026.00
803.76	10029.00
804.20	10014.00
804.64	10012.00
805.09	10038.00
805.53	10150.00
805.97	9978.00
806.41	9890.00
806.85	9883.00
807.29	9634.00
807.74	9662.00
808.18	9683.00
808.62	9707.00
809.06	9671.00
809.50	9706.00
809.94	9702.00
810.38	9638.00
810.82	9712.00
811.27	9770.00
811.71	9417.00
812.15	9294.00
812.59	9117.00
813.03	9023.00
813.47	8776.00
813.91	8594.00
814.35	8437.00
814.79	8498.00
815.23	8313.00
815.67	8265.00
816.12	8297.00
816.56	8250.00
817.00	8306.00
817.44	8304.00
817.88	8366.00
818.32	8173.00
818.76	8260.00
819.20	8350.00
819.64	8251.00
820.08	8407.00
820.52	8608.00
820.96	8691.00
821.40	8593.00
821.84	8494.00
822.28	8042.00
822.72	7927.00
823.16	7918.00
823.60	8154.00
824.04	8735.00
824.48	8902.00
824.92	8830.00
825.36	8786.00
825.80	8613.00
826.24	8613.00
826.68	8532.00
827.12	8609.00
827.56	8555.00
828.00	8510.00
828.44	8511.00
828.88	8500.00
829.32	8632.00
829.76	8556.00
830.20	8830.00
830.64	8635.00
831.08	8724.00
831.52	8538.00
831.96	8430.00
832.40	8319.00
832.84	8474.00
833.28	8410.00
833.72	8697.00
834.16	8640.00
834.60	8882.00
835.04	8985.00
835.48	9072.00
835.91	8971.00
836.35	8944.00
836.79	8938.00
837.23	8972.00
837.67	8810.00
838.11	8709.00
838.55	8842.00
838.99	8741.00
839.43	8959.00
839.87	9038.00
840.30	9072.00
840.74	9187.00
841.18	9110.00
841.62	9261.00
842.06	9175.00
842.50	9200.00
842.94	9149.00
843.38	9071.00
843.81	8844.00
844.25	8819.00
844.69	8721.00
845.13	8836.00
845.57	8779.00
846.01	8828.00
846.45	8914.00
846.88	8982.00
847.32	9105.00
847.76	9235.00
848.20	9105.00
848.64	9070.00
849.08	8999.00
849.51	8985.00
849.95	8834.00
850.39	8741.00
850.83	8925.00
851.27	8764.00
851.70	8712.00
852.14	8671.00
852.58	8508.00
853.02	8361.00
853.46	8193.00
853.89	8125.00
854.33	8286.00
854.77	8382.00
855.21	8747.00
855.65	8973.00
856.08	9148.00
856.52	9062.00
856.96	9090.00
857.40	8818.00
857.83	8671.00
858.27	8688.00
858.71	8513.00
859.15	8558.00
859.58	8586.00
860.02	8609.00
860.46	8774.00
860.89	8875.00
861.33	8953.00
861.77	8964.00
862.21	8976.00
862.64	9029.00
863.08	9053.00
863.52	8965.00
863.95	8887.00
864.39	8720.00
864.83	8427.00
865.27	8124.00
865.70	8225.00
866.14	8057.00
866.58	8109.00
867.01	8348.00
867.45	8563.00
867.89	8760.00
868.32	8847.00
868.76	8964.00
869.20	8831.00
869.63	9037.00
870.07	8907.00
870.51	8623.00
870.94	8488.00
871.38	8393.00
871.82	8307.00
872.25	8267.00
872.69	8313.00
873.13	8316.00
873.56	8413.00
874.00	8470.00
874.43	8502.00
874.87	8597.00
875.31	8845.00
875.74	8663.00
876.18	8774.00
876.61	8763.00
877.05	8665.00
877.49	8580.00
877.92	8452.00
878.36	8358.00
878.79	8253.00
879.23	8180.00
879.67	8065.00
880.10	8055.00
880.54	8096.00
880.97	8209.00
881.41	8391.00
881.84	8526.00
882.28	8600.00
882.72	8694.00
883.15	8776.00
883.59	8736.00
884.02	8746.00
884.46	8695.00
884.89	8575.00
885.33	8397.00
885.76	8227.00
886.20	8176.00
886.63	8092.00
887.07	7929.00
887.50	7961.00
887.94	8092.00
888.37	8162.00
888.81	8292.00
889.24	8277.00
889.68	8328.00
890.11	8453.00
890.55	8552.00
890.98	8489.00
891.42	8537.00
891.85	8513.00
892.29	8358.00
892.72	8159.00
893.16	7991.00
893.59	7862.00
894.03	7681.00
894.46	7597.00
894.90	7395.00
895.33	7056.00
895.77	7158.00
896.20	7071.00
896.63	7036.00
897.07	7195.00
897.50	7103.00
897.94	7061.00
898.37	7310.00
898.81	6994.00
899.24	6916.00
899.68	7203.00
900.11	7101.00
900.54	6979.00
900.98	6837.00
901.41	6927.00
901.85	6933.00
902.28	6902.00
902.71	6895.00
903.15	7194.00
903.58	7273.00
904.02	7347.00
904.45	7350.00
904.88	7325.00
905.32	7235.00
905.75	7319.00
906.18	7116.00
906.62	7163.00
907.05	6963.00
907.48	7008.00
907.92	6943.00
908.35	6956.00
908.79	6851.00
909.22	6708.00
909.65	6689.00
910.09	6688.00
910.52	6728.00
910.95	6592.00
911.38	6734.00
911.82	6577.00
912.25	6650.00
912.68	6737.00
913.12	6749.00
913.55	6740.00
913.98	6829.00
914.42	7007.00
914.85	7093.00
915.28	6732.00
915.72	6772.00
916.15	6730.00
916.58	6825.00
917.01	6651.00
917.45	6531.00
917.88	6551.00
918.31	6694.00
918.74	6871.00
919.18	6944.00
919.61	7023.00
920.04	6985.00
920.47	7117.00
920.91	7210.00
921.34	7097.00
921.77	7243.00
922.20	7193.00
922.64	7256.00
923.07	7141.00
923.50	7135.00
923.93	7050.00
924.37	6959.00
924.80	6796.00
925.23	6854.00
925.66	6730.00
926.09	6451.00
926.53	6391.00
926.96	6199.00
927.39	6162.00
927.82	5833.00
928.25	5690.00
928.69	5749.00
929.12	5593.00
929.55	5499.00
929.98	5380.00
930.41	5133.00
930.84	5008.00
931.28	4731.00
931.71	4697.00
932.14	4486.00
932.57	4421.00
933.00	4252.00
933.43	4144.00
933.86	4127.00
934.30	3947.00
934.73	4121.00
935.16	4097.00
935.59	3968.00
936.02	4069.00
936.45	4036.00
936.88	3994.00
937.31	4205.00
937.75	4279.00
938.18	4339.00
938.61	4446.00
939.04	4546.00
939.47	4548.00
939.90	4406.00
940.33	4408.00
940.76	4167.00
941.19	4130.00
941.62	4043.00
942.05	4000.00
942.48	3895.00
942.91	3794.00
943.35	3968.00
943.78	3922.00
944.21	3872.00
944.64	4029.00
945.07	4003.00
945.50	3945.00
945.93	4018.00
946.36	4168.00
946.79	4135.00
947.22	4231.00
947.65	4238.00
948.08	4112.00
948.51	4195.00
948.94	4220.00
949.37	4264.00
949.80	4137.00
950.23	4106.00
950.66	4190.00
951.09	4216.00
951.52	4057.00
951.95	4234.00
952.38	4241.00
952.81	4334.00
953.24	4384.00
953.67	4449.00
954.10	4368.00
954.53	4502.00
954.96	4421.00
955.39	4543.00
955.82	4646.00
956.25	4612.00
956.68	4676.00
957.11	4619.00
957.53	4619.00
957.96	4547.00
958.39	4497.00
958.82	4407.00
959.25	4408.00
959.68	4531.00
960.11	4628.00
960.54	4682.00
960.97	4811.00
961.40	4915.00
961.83	4862.00
962.26	4851.00
962.68	5122.00
963.11	5148.00
963.54	5087.00
963.97	5227.00
964.40	5119.00
964.83	5217.00
965.26	5238.00
965.69	5230.00
966.11	5185.00
966.54	5138.00
966.97	5323.00
967.40	5354.00
967.83	5495.00
968.26	5432.00
968.69	5433.00
969.11	5480.00
969.54	5409.00
969.97	5440.00
970.40	5516.00
970.83	5506.00
971.26	5542.00
971.68	5526.00
972.11	5514.00
972.54	5567.00
972.97	5659.00
973.40	5490.00
973.82	5509.00
974.25	5449.00
974.68	5482.00
975.11	5346.00
975.54	5369.00
975.96	5310.00
976.39	5271.00
976.82	5410.00
977.25	5317.00
977.67	5273.00
978.10	5351.00
978.53	5421.00
978.96	5406.00
979.38	5541.00
979.81	5490.00
980.24	5667.00
980.67	5768.00
981.09	5726.00
981.52	5781.00
981.95	5783.00
982.38	5784.00
982.80	5790.00
983.23	5908.00
983.66	5913.00
984.08	5847.00
984.51	5769.00
984.94	5752.00
985.37	5788.00
985.79	5629.00
986.22	5586.00
986.65	5570.00
987.07	5542.00
987.50	5543.00
987.93	5489.00
988.35	5576.00
988.78	5588.00
989.21	5615.00
989.63	5665.00
990.06	5741.00
990.49	5829.00
990.91	5952.00
991.34	5871.00
991.77	5895.00
992.19	5883.00
992.62	5868.00
993.05	5759.00
993.47	5861.00
993.90	5801.00
994.32	5753.00
994.75	5689.00
995.18	5484.00
995.60	5518.00
996.03	5422.00
996.45	5513.00
996.88	5490.00
997.31	5393.00
997.73	5527.00
998.16	5405.00
998.58	5534.00
999.01	5539.00
999.44	5517.00
999.86	5667.00
1000.29	5608.00
1000.71	5631.00
1001.14	5664.00
1001.56	5602.00
1001.99	5601.00
1002.41	5540.00
1002.84	5525.00
1003.27	5334.00
1003.69	5409.00
1004.12	5259.00
1004.54	5336.00
1004.97	5227.00
1005.39	5141.00
1005.82	5146.00
1006.24	5158.00
1006.67	5134.00
1007.09	5068.00
1007.52	5177.00
1007.94	5127.00
1008.37	5295.00
1008.79	5195.00
1009.22	5209.00
1009.64	5189.00
1010.07	5184.00
1010.49	5248.00
1010.92	5186.00
1011.34	5207.00
1011.77	5227.00
1012.19	5234.00
1012.62	5166.00
1013.04	5088.00
1013.46	5099.00
1013.89	4994.00
1014.31	4973.00
1014.74	4868.00
1015.16	4937.00
1015.59	4847.00
1016.01	4985.00
1016.44	4892.00
1016.86	5831.00
1017.28	4922.00
1017.71	4975.00
1018.13	5062.00
1018.56	5050.00
1018.98	5084.00
1019.40	5000.00
1019.83	5091.00
1020.25	5101.00
1020.68	5101.00
1021.10	5167.00
1021.52	5110.00
1021.95	5283.00
1022.37	5184.00
1022.79	5147.00
1023.22	5114.00
1023.64	5073.00
1024.07	5049.00
1024.49	5013.00
1024.91	4929.00
1025.34	4899.00
1025.76	4982.00
1026.18	4877.00
1026.61	4906.00
1027.03	4881.00
1027.45	4917.00
1027.88	4875.00
1028.30	4986.00
1028.72	4937.00
1029.15	4951.00
1029.57	5009.00
1029.99	5063.00
1030.41	4906.00
1030.84	5001.00
1031.26	4963.00
1031.68	4936.00
1032.11	4914.00
1032.53	4859.00
1032.95	4759.00
1033.37	4813.00
1033.80	4810.00
1034.22	4674.00
1034.64	4745.00
1035.06	4637.00
1035.49	4592.00
1035.91	4666.00
1036.33	4569.00
1036.75	4573.00
1037.18	4612.00
1037.60	4540.00
1038.02	4598.00
1038.44	4573.00
1038.87	4552.00
1039.29	4530.00
1039.71	4543.00
1040.13	4531.00
1040.55	4604.00
1040.98	4603.00
1041.40	4581.00
1041.82	4534.00
1042.24	4503.00
1042.66	4498.00
1043.09	4426.00
1043.51	4425.00
1043.93	4386.00
1044.35	4340.00
1044.77	4322.00
1045.20	4329.00
1045.62	4247.00
1046.04	4283.00
1046.46	4276.00
1046.88	4236.00
1047.30	4255.00
1047.72	4228.00
1048.15	4205.00
1048.57	4177.00
1048.99	4166.00
1049.41	4159.00
1049.83	4232.00
1050.25	4279.00
1050.67	4185.00
1051.09	4147.00
1051.52	4131.00
1051.94	4105.00
1052.36	4119.00
1052.78	4051.00
1053.20	4126.00
1053.62	4100.00
1054.04	4112.00
1054.46	4087.00
1054.88	4125.00
1055.30	4130.00
1055.72	4064.00
1056.14	4003.00
1056.57	4119.00
1056.99	3924.00
1057.41	3936.00
1057.83	3952.00
1058.25	3917.00
1058.67	3947.00
1059.09	3858.00
1059.51	3882.00
1059.93	3828.00
1060.35	3841.00
1060.77	3841.00
1061.19	3858.00
1061.61	3828.00
1062.03	3818.00
1062.45	3780.00
1062.87	3883.00
1063.29	3863.00
1063.71	3799.00
1064.13	3772.00
1064.55	3746.00
1064.97	3820.00
1065.39	3785.00
1065.81	3760.00
1066.23	3771.00
1066.65	3723.00
1067.07	3810.00
1067.49	3708.00
1067.91	3657.00
1068.33	3680.00
1068.75	3715.00
1069.17	3668.00
1069.59	3652.00
1070.00	3614.00
1070.42	3667.00
1070.84	3585.00
1071.26	3574.00
1071.68	3585.00
1072.10	3662.00
1072.52	3620.00
1072.94	3561.00
1073.36	3591.00
1073.78	3570.00
1074.20	3565.00
1074.62	3617.00
1075.03	3567.00
1075.45	3564.00
1075.87	3607.00
1076.29	3589.00
1076.71	3550.00
1077.13	3611.00
1077.55	3458.00
1077.97	3566.00
1078.38	3498.00
1078.80	3534.00
1079.22	3541.00
1079.64	3490.00
1080.06	3487.00
1080.48	3470.00
1080.89	3436.00
1081.31	3442.00
1081.73	3450.00
1082.15	3462.00
1082.57	3456.00
1082.99	3437.00
1083.40	3384.00
1083.82	3471.00
1084.24	3369.00
1084.66	3411.00
1085.08	3435.00
1085.49	3329.00
1085.91	3392.00
1086.33	4404.00
1086.75	3425.00
1087.17	3378.00
1087.58	3358.00
1088.00	3366.00
1088.42	3431.00
1088.84	3368.00
1089.25	3330.00
1089.67	3380.00
1090.09	3344.00
1090.51	3303.00
1090.92	3360.00
1091.34	3274.00
1091.76	3321.00
1092.18	3286.00
1092.59	3261.00
1093.01	3281.00
1093.43	3250.00
1093.84	3265.00
1094.26	3287.00
1094.68	3229.00
1095.10	3210.00
1095.51	3255.00
1095.93	3212.00
1096.35	3242.00
1096.76	3261.00
1097.18	3286.00
1097.60	3234.00
1098.01	3255.00
1098.43	3192.00
1098.85	3242.00
1099.26	3207.00
1099.68	3216.00
1100.10	3149.00
1100.51	3178.00
1100.93	3173.00
1101.35	3146.00
1101.76	3168.00
1102.18	3563.00
1102.60	3195.00
1103.01	3097.00
1103.43	3134.00
1103.84	3129.00
1104.26	3099.00
1104.68	3121.00
1105.09	3049.00
1105.51	3108.00
1105.92	3158.00
1106.34	3057.00
1106.76	3132.00
1107.17	3119.00
1107.59	3102.00
1108.00	3025.00
1108.42	3088.00
1108.83	3006.00
1109.25	3064.00
1109.67	3034.00
1110.08	3020.00
1110.50	3012.00
1110.91	3054.00
1111.33	3010.00
1111.74	3028.00
1112.16	3031.00
1112.57	3030.00
1112.99	3002.00
1113.41	2997.00
1113.82	2985.00
1114.24	2968.00
1114.65	2972.00
1115.07	2898.00
1115.48	2856.00
1115.90	2184.00
1116.31	2206.00
1116.73	2201.00
1117.14	2198.00
>>>>>End Processed Spectral Data<<<<<
