SpectraSuite Data File
++++++++++++++++++++++++++++++++++++
Date: Tue May 29 13:10:27 EEST 2018
User: CanSEE
Dark Spectrum Present: No
Reference Spectrum Present: No
Number of Sampled Component Spectra: 1
Spectrometers: MAYP11278
Integration Time (usec): 230000 (MAYP11278)
Spectra Averaged: 1 (MAYP11278)
Boxcar Smoothing: 0 (MAYP11278)
Correct for Electrical Dark: No (MAYP11278)
Strobe/Lamp Enabled: No (MAYP11278)
Correct for Detector Non-linearity: No (MAYP11278)
Correct for Stray Light: No (MAYP11278)
Number of Pixels in Processed Spectrum: 2068
>>>>>Begin Processed Spectral Data<<<<<
187.82	2334.00
188.30	2229.00
188.78	2210.00
189.26	2215.00
189.73	3222.00
190.21	3332.00
190.69	3402.00
191.17	3427.00
191.64	3459.00
192.12	3386.00
192.60	3391.00
193.07	3376.00
193.55	3426.00
194.03	3415.00
194.51	3419.00
194.98	3429.00
195.46	3429.00
195.94	3403.00
196.42	3419.00
196.89	3501.00
197.37	3434.00
197.85	3378.00
198.32	3398.00
198.80	3347.00
199.28	3407.00
199.76	3432.00
200.23	3405.00
200.71	3442.00
201.19	3465.00
201.66	3466.00
202.14	3435.00
202.62	3389.00
203.09	3461.00
203.57	3400.00
204.05	3457.00
204.53	3467.00
205.00	3428.00
205.48	3404.00
205.96	3475.00
206.43	3392.00
206.91	3448.00
207.39	3567.00
207.86	3418.00
208.34	3430.00
208.82	3399.00
209.29	3456.00
209.77	3440.00
210.25	3421.00
210.72	3401.00
211.20	3506.00
211.68	3432.00
212.15	3437.00
212.63	3525.00
213.11	3470.00
213.58	3395.00
214.06	3514.00
214.53	3439.00
215.01	3526.00
215.49	3471.00
215.96	3435.00
216.44	3470.00
216.92	3448.00
217.39	3407.00
217.87	3426.00
218.35	3480.00
218.82	3360.00
219.30	3415.00
219.77	3412.00
220.25	3439.00
220.73	3505.00
221.20	3397.00
221.68	3447.00
222.15	3418.00
222.63	3515.00
223.11	3415.00
223.58	3493.00
224.06	3457.00
224.53	3447.00
225.01	3380.00
225.49	3449.00
225.96	3421.00
226.44	3437.00
226.91	3448.00
227.39	3460.00
227.87	3513.00
228.34	3477.00
228.82	3494.00
229.29	3451.00
229.77	3403.00
230.24	3443.00
230.72	3465.00
231.20	3498.00
231.67	3462.00
232.15	3425.00
232.62	3357.00
233.10	3454.00
233.57	3458.00
234.05	3617.00
234.53	3422.00
235.00	3424.00
235.48	3440.00
235.95	3407.00
236.43	3472.00
236.90	3541.00
237.38	3439.00
237.85	3448.00
238.33	3460.00
238.80	3431.00
239.28	3454.00
239.75	3388.00
240.23	3519.00
240.71	3495.00
241.18	3429.00
241.66	3421.00
242.13	3512.00
242.61	3527.00
243.08	3371.00
243.56	3403.00
244.03	3496.00
244.51	3489.00
244.98	3466.00
245.46	3535.00
245.93	4749.00
246.41	3392.00
246.88	3438.00
247.36	3491.00
247.83	3447.00
248.31	3455.00
248.78	3394.00
249.26	3435.00
249.73	3513.00
250.21	3451.00
250.68	3496.00
251.16	3488.00
251.63	3559.00
252.10	3513.00
252.58	3427.00
253.05	3508.00
253.53	3505.00
254.00	3462.00
254.48	3463.00
254.95	3485.00
255.43	3520.00
255.90	3444.00
256.38	3466.00
256.85	3492.00
257.33	3491.00
257.80	3581.00
258.27	3474.00
258.75	3404.00
259.22	3461.00
259.70	3454.00
260.17	3490.00
260.65	3457.00
261.12	3464.00
261.59	3489.00
262.07	3444.00
262.54	3487.00
263.02	3467.00
263.49	3423.00
263.97	3487.00
264.44	3535.00
264.91	3443.00
265.39	3473.00
265.86	3469.00
266.34	3474.00
266.81	3460.00
267.28	3477.00
267.76	3497.00
268.23	3431.00
268.71	3367.00
269.18	3405.00
269.65	3393.00
270.13	3468.00
270.60	3494.00
271.08	3444.00
271.55	3474.00
272.02	3382.00
272.50	3425.00
272.97	3410.00
273.44	3458.00
273.92	3595.00
274.39	3481.00
274.87	3493.00
275.34	3461.00
275.81	3433.00
276.29	3464.00
276.76	3449.00
277.23	3367.00
277.71	3389.00
278.18	3380.00
278.65	3511.00
279.13	3349.00
279.60	3405.00
280.07	3747.00
280.55	3684.00
281.02	3702.00
281.50	3520.00
281.97	3575.00
282.44	3472.00
282.91	3496.00
283.39	3490.00
283.86	3481.00
284.33	3437.00
284.81	3506.00
285.28	3485.00
285.75	3487.00
286.23	3502.00
286.70	3417.00
287.17	3537.00
287.65	3575.00
288.12	3448.00
288.59	3494.00
289.07	3381.00
289.54	3558.00
290.01	3433.00
290.48	3531.00
290.96	3468.00
291.43	3542.00
291.90	3546.00
292.38	3419.00
292.85	3541.00
293.32	3491.00
293.79	3480.00
294.27	3490.00
294.74	3462.00
295.21	3529.00
295.69	3467.00
296.16	3530.00
296.63	3526.00
297.10	3489.00
297.58	3504.00
298.05	3514.00
298.52	3485.00
298.99	3545.00
299.47	3449.00
299.94	3483.00
300.41	3457.00
300.88	3508.00
301.36	3494.00
301.83	3507.00
302.30	3399.00
302.77	3505.00
303.25	3520.00
303.72	3450.00
304.19	3459.00
304.66	3423.00
305.13	3471.00
305.61	3501.00
306.08	3480.00
306.55	3510.00
307.02	3487.00
307.49	3429.00
307.97	3480.00
308.44	3429.00
308.91	3492.00
309.38	3499.00
309.86	3506.00
310.33	3490.00
310.80	3495.00
311.27	3506.00
311.74	3521.00
312.21	3479.00
312.69	3593.00
313.16	3460.00
313.63	3474.00
314.10	3478.00
314.57	3451.00
315.05	3466.00
315.52	3510.00
315.99	3514.00
316.46	3492.00
316.93	3511.00
317.40	3472.00
317.88	3639.00
318.35	3506.00
318.82	3492.00
319.29	3463.00
319.76	3543.00
320.23	3583.00
320.70	3560.00
321.18	3483.00
321.65	3455.00
322.12	3437.00
322.59	3582.00
323.06	3455.00
323.53	3657.00
324.00	3491.00
324.48	3532.00
324.95	3495.00
325.42	3473.00
325.89	3496.00
326.36	3523.00
326.83	3559.00
327.30	3498.00
327.77	3553.00
328.24	3547.00
328.72	3500.00
329.19	3515.00
329.66	3497.00
330.13	3498.00
330.60	3544.00
331.07	3559.00
331.54	3620.00
332.01	3494.00
332.48	3625.00
332.95	3518.00
333.43	3535.00
333.90	3597.00
334.37	3559.00
334.84	3533.00
335.31	3718.00
335.78	3479.00
336.25	3537.00
336.72	3521.00
337.19	3571.00
337.66	3491.00
338.13	3458.00
338.60	3556.00
339.07	3589.00
339.54	3465.00
340.01	3467.00
340.49	3471.00
340.96	3515.00
341.43	3543.00
341.90	3486.00
342.37	3520.00
342.84	3533.00
343.31	3540.00
343.78	3487.00
344.25	3545.00
344.72	3465.00
345.19	3502.00
345.66	3525.00
346.13	3495.00
346.60	3477.00
347.07	3589.00
347.54	3490.00
348.01	3541.00
348.48	3504.00
348.95	3437.00
349.42	3499.00
349.89	3566.00
350.36	3502.00
350.83	3465.00
351.30	3529.00
351.77	3629.00
352.24	3530.00
352.71	3511.00
353.18	3484.00
353.65	3507.00
354.12	3539.00
354.59	3533.00
355.06	3553.00
355.53	3586.00
356.00	3461.00
356.47	3580.00
356.94	3480.00
357.41	3619.00
357.88	3533.00
358.35	3445.00
358.82	3486.00
359.28	3524.00
359.75	3527.00
360.22	3558.00
360.69	3595.00
361.16	3513.00
361.63	3538.00
362.10	3524.00
362.57	3497.00
363.04	3515.00
363.51	3638.00
363.98	3563.00
364.45	3468.00
364.92	3555.00
365.39	3477.00
365.86	3473.00
366.32	3544.00
366.79	3520.00
367.26	4419.00
367.73	3553.00
368.20	3443.00
368.67	3598.00
369.14	3504.00
369.61	3585.00
370.08	3561.00
370.55	3537.00
371.02	4234.00
371.48	3502.00
371.95	3501.00
372.42	3501.00
372.89	3520.00
373.36	3558.00
373.83	3445.00
374.30	3473.00
374.77	3519.00
375.23	3448.00
375.70	3554.00
376.17	3501.00
376.64	3474.00
377.11	3476.00
377.58	3517.00
378.05	3533.00
378.51	3503.00
378.98	3513.00
379.45	3509.00
379.92	3561.00
380.39	3661.00
380.86	3529.00
381.33	3589.00
381.79	3607.00
382.26	3429.00
382.73	3540.00
383.20	3507.00
383.67	3527.00
384.14	3477.00
384.60	3760.00
385.07	3563.00
385.54	3551.00
386.01	3459.00
386.48	3603.00
386.94	3475.00
387.41	3468.00
387.88	3550.00
388.35	3519.00
388.82	3547.00
389.28	3524.00
389.75	3540.00
390.22	3539.00
390.69	3527.00
391.16	3563.00
391.62	3549.00
392.09	3541.00
392.56	3521.00
393.03	3512.00
393.50	3609.00
393.96	3495.00
394.43	3592.00
394.90	3474.00
395.37	3536.00
395.83	3717.00
396.30	3459.00
396.77	3573.00
397.24	3554.00
397.70	3462.00
398.17	3525.00
398.64	3497.00
399.11	3500.00
399.57	3556.00
400.04	3475.00
400.51	3497.00
400.98	3516.00
401.44	3540.00
401.91	3556.00
402.38	3488.00
402.84	3523.00
403.31	3568.00
403.78	3561.00
404.25	3605.00
404.71	3610.00
405.18	3587.00
405.65	3483.00
406.12	3585.00
406.58	3497.00
407.05	3607.00
407.52	3541.00
407.98	4073.00
408.45	3539.00
408.92	3457.00
409.38	3547.00
409.85	3515.00
410.32	3601.00
410.78	3535.00
411.25	3611.00
411.72	3547.00
412.18	3477.00
412.65	3571.00
413.12	3554.00
413.59	3546.00
414.05	3574.00
414.52	3611.00
414.98	3524.00
415.45	3613.00
415.92	3550.00
416.38	3565.00
416.85	3626.00
417.32	3522.00
417.78	3507.00
418.25	3567.00
418.72	3559.00
419.18	3611.00
419.65	3529.00
420.12	3584.00
420.58	3484.00
421.05	3537.00
421.51	3569.00
421.98	3572.00
422.45	3568.00
422.91	3542.00
423.38	3562.00
423.85	3625.00
424.31	3564.00
424.78	3612.00
425.24	3564.00
425.71	3663.00
426.18	3549.00
426.64	3652.00
427.11	3618.00
427.57	3633.00
428.04	3528.00
428.51	3640.00
428.97	3603.00
429.44	3535.00
429.90	3566.00
430.37	3690.00
430.83	3559.00
431.30	3561.00
431.77	3660.00
432.23	3659.00
432.70	3609.00
433.16	3569.00
433.63	3563.00
434.09	3600.00
434.56	3621.00
435.03	3578.00
435.49	3611.00
435.96	3652.00
436.42	3561.00
436.89	3690.00
437.35	3601.00
437.82	3586.00
438.28	3601.00
438.75	3578.00
439.21	3798.00
439.68	3640.00
440.14	3679.00
440.61	3672.00
441.07	3622.00
441.54	3621.00
442.00	3738.00
442.47	3589.00
442.94	3667.00
443.40	3673.00
443.87	3562.00
444.33	3733.00
444.80	3617.00
445.26	3629.00
445.73	3607.00
446.19	3653.00
446.65	3646.00
447.12	3661.00
447.58	3629.00
448.05	3623.00
448.51	3654.00
448.98	3681.00
449.44	3683.00
449.91	3607.00
450.37	3629.00
450.84	3669.00
451.30	3667.00
451.77	3708.00
452.23	3601.00
452.70	3669.00
453.16	3639.00
453.62	3665.00
454.09	3657.00
454.55	3656.00
455.02	3633.00
455.48	3636.00
455.95	3671.00
456.41	3603.00
456.88	3744.00
457.34	3644.00
457.80	3597.00
458.27	3593.00
458.73	3630.00
459.20	3645.00
459.66	3688.00
460.13	3595.00
460.59	3603.00
461.05	3676.00
461.52	3677.00
461.98	3571.00
462.45	3552.00
462.91	3713.00
463.37	3613.00
463.84	3624.00
464.30	3542.00
464.76	3558.00
465.23	3580.00
465.69	3625.00
466.16	3584.00
466.62	3605.00
467.08	3589.00
467.55	3571.00
468.01	3583.00
468.48	3585.00
468.94	3581.00
469.40	3537.00
469.87	3569.00
470.33	3563.00
470.79	3542.00
471.26	3522.00
471.72	3537.00
472.18	3506.00
472.65	3577.00
473.11	3601.00
473.57	3541.00
474.04	3521.00
474.50	3557.00
474.96	3503.00
475.43	3567.00
475.89	3552.00
476.35	3557.00
476.82	3531.00
477.28	3567.00
477.74	3604.00
478.21	3559.00
478.67	3534.00
479.13	3462.00
479.59	3595.00
480.06	3577.00
480.52	3545.00
480.98	3546.00
481.45	3500.00
481.91	3530.00
482.37	3497.00
482.84	3496.00
483.30	3489.00
483.76	3493.00
484.22	3607.00
484.69	3501.00
485.15	3476.00
485.61	3428.00
486.07	3475.00
486.54	3412.00
487.00	3469.00
487.46	3456.00
487.92	3461.00
488.39	3475.00
488.85	3515.00
489.31	3541.00
489.77	3543.00
490.24	3504.00
490.70	3540.00
491.16	3493.00
491.62	3449.00
492.09	3461.00
492.55	3624.00
493.01	3556.00
493.47	3535.00
493.94	3505.00
494.40	3581.00
494.86	3510.00
495.32	3507.00
495.78	3547.00
496.25	3544.00
496.71	3542.00
497.17	3646.00
497.63	3630.00
498.09	3481.00
498.56	3610.00
499.02	3560.00
499.48	3657.00
499.94	3581.00
500.40	3566.00
500.87	3571.00
501.33	3565.00
501.79	3586.00
502.25	3609.00
502.71	3876.00
503.17	3605.00
503.64	3601.00
504.10	3621.00
504.56	3633.00
505.02	3679.00
505.48	3614.00
505.94	3677.00
506.40	3723.00
506.87	3693.00
507.33	3679.00
507.79	3709.00
508.25	3676.00
508.71	3703.00
509.17	3681.00
509.63	3729.00
510.10	3766.00
510.56	3788.00
511.02	3856.00
511.48	3866.00
511.94	3785.00
512.40	3749.00
512.86	3812.00
513.32	3888.00
513.78	3800.00
514.25	3936.00
514.71	4568.00
515.17	3869.00
515.63	3946.00
516.09	3990.00
516.55	3971.00
517.01	4042.00
517.47	4026.00
517.93	4053.00
518.39	4220.00
518.85	4077.00
519.32	4069.00
519.78	4177.00
520.24	4209.00
520.70	4299.00
521.16	4331.00
521.62	4365.00
522.08	4321.00
522.54	4364.00
523.00	4556.00
523.46	4501.00
523.92	4473.00
524.38	4665.00
524.84	4560.00
525.30	4636.00
525.76	4670.00
526.22	4563.00
526.68	4527.00
527.14	4624.00
527.60	4617.00
528.06	4727.00
528.52	4838.00
528.98	4858.00
529.44	4812.00
529.90	4894.00
530.36	4888.00
530.82	4924.00
531.28	5058.00
531.74	4933.00
532.20	4931.00
532.66	4953.00
533.12	4985.00
533.58	4955.00
534.04	4983.00
534.50	5018.00
534.96	5108.00
535.42	5214.00
535.88	5108.00
536.34	5143.00
536.80	5041.00
537.26	5150.00
537.72	5138.00
538.18	5124.00
538.64	5277.00
539.10	5180.00
539.56	5378.00
540.02	5137.00
540.48	5278.00
540.94	5209.00
541.40	5213.00
541.86	5272.00
542.32	5239.00
542.78	5248.00
543.24	5439.00
543.69	5271.00
544.15	5449.00
544.61	5424.00
545.07	5373.00
545.53	5324.00
545.99	5443.00
546.45	5379.00
546.91	5411.00
547.37	5440.00
547.83	5377.00
548.29	5457.00
548.74	5429.00
549.20	5497.00
549.66	5579.00
550.12	5485.00
550.58	5410.00
551.04	5495.00
551.50	5503.00
551.96	5674.00
552.42	5469.00
552.87	5463.00
553.33	5547.00
553.79	5520.00
554.25	5527.00
554.71	5569.00
555.17	5553.00
555.63	5607.00
556.08	5548.00
556.54	5512.00
557.00	5417.00
557.46	5524.00
557.92	5521.00
558.38	5372.00
558.83	5332.00
559.29	5363.00
559.75	5378.00
560.21	5345.00
560.67	5500.00
561.13	5365.00
561.58	5364.00
562.04	5381.00
562.50	5334.00
562.96	5371.00
563.42	5454.00
563.87	5231.00
564.33	5343.00
564.79	5306.00
565.25	5277.00
565.71	5196.00
566.16	5295.00
566.62	5163.00
567.08	5183.00
567.54	5211.00
568.00	5179.00
568.45	5119.00
568.91	5043.00
569.37	5149.00
569.83	4982.00
570.28	4952.00
570.74	4987.00
571.20	5004.00
571.66	4948.00
572.11	5028.00
572.57	4957.00
573.03	4885.00
573.49	4887.00
573.94	4887.00
574.40	4923.00
574.86	4917.00
575.32	4768.00
575.77	4837.00
576.23	4775.00
576.69	4786.00
577.15	4717.00
577.60	4722.00
578.06	4622.00
578.52	4761.00
578.97	4736.00
579.43	4698.00
579.89	4752.00
580.34	4682.00
580.80	4704.00
581.26	4728.00
581.72	4689.00
582.17	4725.00
582.63	4594.00
583.09	4634.00
583.54	4644.00
584.00	4710.00
584.46	4658.00
584.91	4552.00
585.37	4661.00
585.83	4590.00
586.28	4560.00
586.74	4592.00
587.20	4552.00
587.65	4584.00
588.11	4471.00
588.57	4453.00
589.02	4347.00
589.48	4317.00
589.94	4444.00
590.39	4484.00
590.85	4486.00
591.30	4437.00
591.76	4496.00
592.22	4480.00
592.67	4474.00
593.13	4471.00
593.59	4493.00
594.04	4438.00
594.50	4475.00
594.95	4433.00
595.41	4447.00
595.87	4442.00
596.32	4523.00
596.78	4499.00
597.23	4461.00
597.69	4428.00
598.15	4387.00
598.60	4379.00
599.06	4504.00
599.51	4407.00
599.97	4480.00
600.43	4487.00
600.88	4420.00
601.34	4459.00
601.79	4376.00
602.25	4531.00
602.70	4423.00
603.16	4472.00
603.61	4397.00
604.07	4323.00
604.53	4414.00
604.98	4407.00
605.44	4399.00
605.89	4361.00
606.35	4329.00
606.80	4310.00
607.26	4326.00
607.71	4376.00
608.17	4370.00
608.62	4347.00
609.08	4407.00
609.53	4368.00
609.99	4257.00
610.44	4252.00
610.90	4304.00
611.35	4259.00
611.81	4359.00
612.26	4278.00
612.72	4267.00
613.17	4355.00
613.63	4145.00
614.08	4157.00
614.54	4183.00
614.99	4157.00
615.45	4189.00
615.90	4203.00
616.36	4079.00
616.81	4138.00
617.27	4115.00
617.72	4224.00
618.18	4147.00
618.63	4141.00
619.09	4145.00
619.54	4149.00
619.99	4180.00
620.45	4179.00
620.90	4183.00
621.36	4095.00
621.81	4227.00
622.27	4207.00
622.72	4156.00
623.18	4072.00
623.63	4076.00
624.08	4185.00
624.54	4075.00
624.99	4089.00
625.45	4119.00
625.90	4037.00
626.35	4086.00
626.81	4087.00
627.26	4050.00
627.72	4092.00
628.17	4071.00
628.62	4007.00
629.08	4066.00
629.53	4078.00
629.99	4062.00
630.44	4113.00
630.89	4144.00
631.35	4059.00
631.80	4089.00
632.26	4092.00
632.71	4055.00
633.16	4025.00
633.62	3998.00
634.07	4003.00
634.52	4048.00
634.98	4056.00
635.43	4021.00
635.88	4022.00
636.34	4080.00
636.79	3998.00
637.24	4025.00
637.70	4093.00
638.15	4113.00
638.60	4031.00
639.06	4004.00
639.51	3966.00
639.96	3937.00
640.42	3995.00
640.87	4018.00
641.32	3911.00
641.78	3942.00
642.23	3964.00
642.68	3911.00
643.14	3882.00
643.59	3924.00
644.04	3867.00
644.49	3871.00
644.95	3877.00
645.40	3816.00
645.85	3818.00
646.31	3837.00
646.76	3807.00
647.21	3885.00
647.66	3831.00
648.12	3815.00
648.57	3748.00
649.02	3841.00
649.47	3766.00
649.93	3905.00
650.38	3751.00
650.83	3768.00
651.28	3734.00
651.74	3737.00
652.19	3695.00
652.64	3805.00
653.09	3765.00
653.55	3697.00
654.00	3789.00
654.45	3740.00
654.90	3704.00
655.35	3678.00
655.81	3687.00
656.26	3621.00
656.71	3665.00
657.16	3739.00
657.62	3701.00
658.07	3671.00
658.52	3700.00
658.97	3669.00
659.42	3873.00
659.88	3632.00
660.33	3711.00
660.78	3692.00
661.23	3611.00
661.68	3606.00
662.13	3603.00
662.59	3582.00
663.04	3609.00
663.49	3591.00
663.94	3597.00
664.39	3568.00
664.84	3560.00
665.30	3616.00
665.75	3508.00
666.20	3615.00
666.65	3578.00
667.10	3684.00
667.55	3604.00
668.00	3562.00
668.46	3575.00
668.91	3488.00
669.36	3631.00
669.81	3457.00
670.26	3510.00
670.71	3612.00
671.16	3538.00
671.61	3591.00
672.06	3650.00
672.52	3484.00
672.97	3513.00
673.42	3588.00
673.87	3678.00
674.32	3535.00
674.77	3540.00
675.22	3482.00
675.67	3495.00
676.12	3492.00
676.57	3503.00
677.02	3530.00
677.47	3517.00
677.93	3639.00
678.38	3466.00
678.83	3516.00
679.28	3529.00
679.73	3483.00
680.18	3530.00
680.63	3527.00
681.08	3470.00
681.53	3470.00
681.98	3515.00
682.43	3537.00
682.88	3545.00
683.33	3583.00
683.78	3584.00
684.23	3610.00
684.68	3576.00
685.13	3572.00
685.58	3616.00
686.03	3587.00
686.48	3555.00
686.93	3523.00
687.38	3537.00
687.83	3553.00
688.28	3599.00
688.73	3741.00
689.18	3711.00
689.63	3630.00
690.08	3752.00
690.53	3761.00
690.98	3788.00
691.43	3875.00
691.88	3811.00
692.33	3967.00
692.78	3974.00
693.23	4148.00
693.68	4157.00
694.13	4132.00
694.58	4211.00
695.03	4516.00
695.48	4377.00
695.93	4495.00
696.38	4638.00
696.83	4667.00
697.28	4709.00
697.72	4797.00
698.17	4849.00
698.62	4997.00
699.07	5089.00
699.52	5145.00
699.97	5199.00
700.42	5365.00
700.87	5433.00
701.32	5694.00
701.77	5625.00
702.22	5788.00
702.67	5753.00
703.11	5988.00
703.56	6121.00
704.01	6228.00
704.46	6346.00
704.91	6531.00
705.36	6601.00
705.81	6704.00
706.26	6751.00
706.70	6964.00
707.15	7036.00
707.60	7170.00
708.05	7251.00
708.50	7364.00
708.95	7526.00
709.40	7551.00
709.84	7704.00
710.29	7909.00
710.74	7848.00
711.19	8120.00
711.64	8163.00
712.09	8323.00
712.53	8299.00
712.98	8515.00
713.43	8597.00
713.88	8712.00
714.33	8870.00
714.78	8725.00
715.22	8861.00
715.67	8965.00
716.12	8866.00
716.57	8671.00
717.02	8417.00
717.46	8224.00
717.91	8429.00
718.36	8313.00
718.81	8226.00
719.26	8255.00
719.70	8485.00
720.15	8581.00
720.60	8917.00
721.05	9545.00
721.49	9809.00
721.94	10034.00
722.39	9966.00
722.84	9870.00
723.28	9600.00
723.73	9636.00
724.18	9583.00
724.63	9771.00
725.07	9780.00
725.52	9950.00
725.97	10154.00
726.42	10299.00
726.86	10519.00
727.31	10261.00
727.76	10378.00
728.21	10646.00
728.65	10676.00
729.10	10708.00
729.55	10796.00
729.99	11163.00
730.44	11104.00
730.89	11420.00
731.33	11528.00
731.78	11827.00
732.23	11997.00
732.68	12250.00
733.12	12347.00
733.57	12704.00
734.02	12794.00
734.46	12979.00
734.91	13025.00
735.36	13013.00
735.80	13270.00
736.25	13135.00
736.70	13427.00
737.14	13560.00
737.59	13602.00
738.04	13573.00
738.48	13588.00
738.93	13569.00
739.37	13806.00
739.82	14053.00
740.27	14202.00
740.71	13945.00
741.16	14073.00
741.61	14162.00
742.05	14211.00
742.50	14262.00
742.94	14389.00
743.39	14490.00
743.84	14558.00
744.28	14561.00
744.73	14553.00
745.18	14681.00
745.62	14824.00
746.07	14807.00
746.51	14835.00
746.96	14756.00
747.40	14828.00
747.85	14764.00
748.30	14780.00
748.74	14724.00
749.19	14771.00
749.63	14837.00
750.08	14831.00
750.52	14818.00
750.97	14835.00
751.42	14887.00
751.86	14951.00
752.31	14803.00
752.75	14866.00
753.20	14785.00
753.64	14825.00
754.09	14872.00
754.53	14862.00
754.98	14831.00
755.42	14854.00
755.87	14835.00
756.31	14813.00
756.76	14639.00
757.20	14694.00
757.65	14584.00
758.09	14439.00
758.54	13981.00
758.98	12665.00
759.43	10367.00
759.87	7959.00
760.32	6639.00
760.76	6510.00
761.21	7481.00
761.65	8841.00
762.10	9105.00
762.54	8655.00
762.99	8385.00
763.43	8596.00
763.88	8947.00
764.32	9513.00
764.77	10204.00
765.21	10936.00
765.66	11307.00
766.10	11872.00
766.54	12603.00
766.99	12905.00
767.43	13427.00
767.88	13576.00
768.32	13945.00
768.77	14127.00
769.21	14438.00
769.66	14359.00
770.10	14515.00
770.54	14592.00
770.99	14655.00
771.43	14570.00
771.88	14679.00
772.32	14661.00
772.76	14614.00
773.21	14566.00
773.65	14473.00
774.10	14474.00
774.54	14403.00
774.98	14482.00
775.43	14716.00
775.87	14834.00
776.31	14897.00
776.76	14813.00
777.20	14764.00
777.65	14628.00
778.09	14523.00
778.53	14482.00
778.98	14445.00
779.42	14558.00
779.86	14518.00
780.31	14403.00
780.75	14553.00
781.19	14528.00
781.64	14649.00
782.08	14748.00
782.52	14461.00
782.97	14410.00
783.41	14407.00
783.85	14318.00
784.30	14228.00
784.74	14139.00
785.18	14138.00
785.63	14059.00
786.07	14279.00
786.51	14217.00
786.95	14150.00
787.40	14222.00
787.84	14009.00
788.28	14066.00
788.73	14003.00
789.17	13752.00
789.61	13573.00
790.05	13705.00
790.50	13450.00
790.94	13527.00
791.38	13515.00
791.82	13524.00
792.27	13643.00
792.71	13636.00
793.15	13843.00
793.59	13647.00
794.04	13479.00
794.48	13507.00
794.92	13367.00
795.36	13311.00
795.81	13226.00
796.25	13148.00
796.69	13158.00
797.13	13413.00
797.57	13522.00
798.02	13590.00
798.46	13583.00
798.90	13589.00
799.34	13373.00
799.79	13350.00
800.23	13043.00
800.67	13120.00
801.11	13045.00
801.55	12947.00
801.99	12821.00
802.44	12975.00
802.88	12970.00
803.32	13025.00
803.76	13136.00
804.20	13166.00
804.64	13117.00
805.09	13273.00
805.53	13289.00
805.97	13030.00
806.41	12902.00
806.85	12853.00
807.29	12664.00
807.74	12727.00
808.18	12600.00
808.62	12651.00
809.06	12680.00
809.50	12522.00
809.94	12537.00
810.38	12677.00
810.82	12766.00
811.27	12734.00
811.71	12338.00
812.15	12160.00
812.59	11909.00
813.03	11750.00
813.47	11307.00
813.91	11128.00
814.35	10933.00
814.79	10966.00
815.23	10727.00
815.67	10690.00
816.12	10672.00
816.56	10694.00
817.00	10716.00
817.44	10815.00
817.88	10952.00
818.32	10696.00
818.76	10799.00
819.20	10791.00
819.64	10815.00
820.08	11021.00
820.52	11059.00
820.96	11447.00
821.40	11191.00
821.84	10888.00
822.28	10344.00
822.72	10261.00
823.16	10287.00
823.60	10669.00
824.04	11368.00
824.48	11533.00
824.92	11506.00
825.36	11485.00
825.80	11308.00
826.24	11206.00
826.68	10977.00
827.12	11160.00
827.56	10976.00
828.00	10907.00
828.44	11016.00
828.88	11180.00
829.32	11209.00
829.76	11240.00
830.20	11453.00
830.64	11245.00
831.08	11201.00
831.52	11043.00
831.96	11003.00
832.40	10843.00
832.84	10825.00
833.28	11018.00
833.72	11178.00
834.16	11365.00
834.60	11555.00
835.04	11742.00
835.48	11832.00
835.91	11816.00
836.35	11674.00
836.79	11545.00
837.23	11603.00
837.67	11552.00
838.11	11422.00
838.55	11515.00
838.99	11473.00
839.43	11783.00
839.87	11785.00
840.30	11725.00
840.74	11932.00
841.18	12022.00
841.62	12046.00
842.06	11995.00
842.50	12028.00
842.94	11939.00
843.38	11769.00
843.81	11569.00
844.25	11510.00
844.69	11408.00
845.13	11483.00
845.57	11515.00
846.01	11474.00
846.45	11533.00
846.88	11611.00
847.32	11649.00
847.76	11940.00
848.20	12033.00
848.64	11714.00
849.08	11627.00
849.51	11573.00
849.95	11407.00
850.39	11458.00
850.83	11465.00
851.27	11439.00
851.70	11337.00
852.14	11294.00
852.58	11067.00
853.02	10784.00
853.46	10553.00
853.89	10624.00
854.33	10619.00
854.77	10864.00
855.21	11493.00
855.65	11832.00
856.08	11923.00
856.52	11841.00
856.96	11804.00
857.40	11647.00
857.83	11496.00
858.27	11423.00
858.71	11130.00
859.15	11039.00
859.58	11212.00
860.02	11247.00
860.46	11329.00
860.89	11500.00
861.33	11701.00
861.77	11692.00
862.21	11809.00
862.64	11871.00
863.08	11818.00
863.52	11749.00
863.95	11526.00
864.39	11396.00
864.83	11031.00
865.27	10671.00
865.70	10608.00
866.14	10353.00
866.58	10522.00
867.01	10821.00
867.45	11231.00
867.89	11287.00
868.32	11509.00
868.76	11684.00
869.20	11723.00
869.63	11767.00
870.07	11593.00
870.51	11273.00
870.94	11174.00
871.38	10875.00
871.82	10819.00
872.25	10748.00
872.69	10733.00
873.13	10808.00
873.56	10901.00
874.00	10954.00
874.43	11087.00
874.87	11247.00
875.31	11394.00
875.74	11299.00
876.18	11431.00
876.61	11481.00
877.05	11336.00
877.49	11271.00
877.92	11054.00
878.36	10934.00
878.79	10808.00
879.23	10613.00
879.67	10376.00
880.10	10403.00
880.54	10437.00
880.97	10611.00
881.41	10872.00
881.84	11080.00
882.28	11270.00
882.72	11279.00
883.15	11422.00
883.59	11444.00
884.02	11502.00
884.46	11404.00
884.89	11148.00
885.33	11056.00
885.76	10721.00
886.20	10559.00
886.63	10486.00
887.07	10364.00
887.50	10402.00
887.94	10430.00
888.37	10429.00
888.81	10834.00
889.24	10589.00
889.68	10792.00
890.11	10927.00
890.55	11055.00
890.98	11155.00
891.42	11115.00
891.85	10970.00
892.29	10899.00
892.72	10621.00
893.16	10392.00
893.59	10331.00
894.03	9956.00
894.46	9718.00
894.90	9424.00
895.33	9110.00
895.77	9155.00
896.20	9207.00
896.63	9102.00
897.07	9079.00
897.50	9044.00
897.94	9081.00
898.37	9466.00
898.81	8918.00
899.24	8851.00
899.68	9279.00
900.11	9115.00
900.54	8896.00
900.98	8859.00
901.41	8801.00
901.85	8903.00
902.28	8905.00
902.71	8981.00
903.15	9220.00
903.58	9351.00
904.02	9416.00
904.45	9417.00
904.88	9417.00
905.32	9272.00
905.75	9389.00
906.18	8996.00
906.62	9054.00
907.05	8907.00
907.48	8999.00
907.92	8893.00
908.35	8956.00
908.79	8755.00
909.22	8609.00
909.65	8586.00
910.09	8567.00
910.52	8591.00
910.95	8488.00
911.38	8618.00
911.82	8296.00
912.25	8477.00
912.68	8620.00
913.12	8525.00
913.55	8656.00
913.98	8762.00
914.42	8982.00
914.85	9125.00
915.28	8779.00
915.72	8775.00
916.15	8689.00
916.58	8694.00
917.01	8429.00
917.45	8370.00
917.88	8553.00
918.31	8551.00
918.74	8859.00
919.18	8923.00
919.61	8912.00
920.04	9085.00
920.47	9117.00
920.91	9243.00
921.34	9162.00
921.77	9173.00
922.20	9267.00
922.64	9240.00
923.07	9159.00
923.50	9100.00
923.93	8969.00
924.37	8989.00
924.80	8734.00
925.23	8755.00
925.66	8611.00
926.09	8176.00
926.53	8103.00
926.96	7797.00
927.39	7669.00
927.82	7275.00
928.25	7089.00
928.69	7066.00
929.12	6933.00
929.55	6681.00
929.98	6580.00
930.41	6263.00
930.84	6076.00
931.28	5777.00
931.71	5624.00
932.14	5285.00
932.57	5242.00
933.00	4972.00
933.43	4965.00
933.86	4816.00
934.30	4723.00
934.73	4978.00
935.16	4805.00
935.59	4642.00
936.02	4807.00
936.45	4725.00
936.88	4711.00
937.31	5057.00
937.75	5017.00
938.18	5225.00
938.61	5383.00
939.04	5526.00
939.47	5459.00
939.90	5292.00
940.33	5233.00
940.76	4923.00
941.19	4873.00
941.62	4728.00
942.05	4755.00
942.48	4515.00
942.91	4540.00
943.35	4626.00
943.78	4541.00
944.21	4537.00
944.64	4741.00
945.07	4713.00
945.50	4699.00
945.93	4736.00
946.36	4852.00
946.79	4943.00
947.22	4996.00
947.65	4955.00
948.08	4772.00
948.51	4941.00
948.94	5073.00
949.37	5015.00
949.80	4897.00
950.23	4885.00
950.66	5056.00
951.09	5079.00
951.52	4801.00
951.95	4939.00
952.38	4967.00
952.81	5191.00
953.24	5207.00
953.67	5255.00
954.10	5255.00
954.53	5334.00
954.96	5366.00
955.39	5438.00
955.82	5569.00
956.25	5503.00
956.68	5654.00
957.11	5567.00
957.53	5560.00
957.96	5493.00
958.39	5471.00
958.82	5311.00
959.25	5363.00
959.68	5522.00
960.11	5576.00
960.54	5629.00
960.97	5743.00
961.40	5949.00
961.83	5854.00
962.26	5879.00
962.68	6261.00
963.11	6200.00
963.54	6255.00
963.97	6377.00
964.40	6283.00
964.83	6447.00
965.26	6491.00
965.69	6427.00
966.11	6457.00
966.54	6350.00
966.97	6626.00
967.40	6714.00
967.83	6770.00
968.26	6627.00
968.69	6686.00
969.11	6685.00
969.54	6600.00
969.97	6743.00
970.40	6784.00
970.83	6765.00
971.26	6745.00
971.68	6837.00
972.11	6805.00
972.54	6938.00
972.97	6778.00
973.40	6799.00
973.82	6780.00
974.25	6855.00
974.68	6741.00
975.11	6624.00
975.54	6543.00
975.96	6523.00
976.39	6594.00
976.82	6604.00
977.25	6519.00
977.67	6474.00
978.10	6597.00
978.53	6584.00
978.96	6743.00
979.38	6788.00
979.81	6775.00
980.24	7011.00
980.67	7164.00
981.09	7124.00
981.52	7233.00
981.95	7159.00
982.38	7211.00
982.80	7188.00
983.23	7357.00
983.66	7375.00
984.08	7265.00
984.51	7235.00
984.94	7286.00
985.37	7157.00
985.79	7003.00
986.22	6937.00
986.65	6903.00
987.07	6846.00
987.50	6903.00
987.93	6898.00
988.35	6889.00
988.78	6905.00
989.21	6946.00
989.63	7104.00
990.06	7098.00
990.49	7205.00
990.91	7301.00
991.34	7319.00
991.77	7272.00
992.19	7303.00
992.62	7284.00
993.05	7258.00
993.47	7253.00
993.90	7239.00
994.32	7088.00
994.75	7010.00
995.18	6847.00
995.60	6827.00
996.03	6781.00
996.45	6810.00
996.88	6761.00
997.31	6723.00
997.73	6659.00
998.16	6665.00
998.58	6853.00
999.01	6829.00
999.44	6806.00
999.86	7010.00
1000.29	6905.00
1000.71	6954.00
1001.14	7043.00
1001.56	7017.00
1001.99	7023.00
1002.41	6902.00
1002.84	6857.00
1003.27	6755.00
1003.69	6635.00
1004.12	6636.00
1004.54	6483.00
1004.97	6397.00
1005.39	6442.00
1005.82	6391.00
1006.24	6313.00
1006.67	6307.00
1007.09	6312.00
1007.52	6307.00
1007.94	6313.00
1008.37	6530.00
1008.79	6429.00
1009.22	6424.00
1009.64	6393.00
1010.07	6428.00
1010.49	6455.00
1010.92	6477.00
1011.34	6425.00
1011.77	6455.00
1012.19	6405.00
1012.62	6471.00
1013.04	6337.00
1013.46	6240.00
1013.89	6099.00
1014.31	6093.00
1014.74	6049.00
1015.16	6051.00
1015.59	5965.00
1016.01	5997.00
1016.44	5967.00
1016.86	6912.00
1017.28	6036.00
1017.71	5977.00
1018.13	6213.00
1018.56	6159.00
1018.98	6217.00
1019.40	6200.00
1019.83	6252.00
1020.25	6274.00
1020.68	6303.00
1021.10	6354.00
1021.52	6238.00
1021.95	6530.00
1022.37	6397.00
1022.79	6371.00
1023.22	6330.00
1023.64	6303.00
1024.07	6201.00
1024.49	6214.00
1024.91	6058.00
1025.34	6047.00
1025.76	6200.00
1026.18	6045.00
1026.61	5980.00
1027.03	5989.00
1027.45	5971.00
1027.88	5933.00
1028.30	6154.00
1028.72	6075.00
1029.15	6093.00
1029.57	6129.00
1029.99	6221.00
1030.41	6077.00
1030.84	6054.00
1031.26	6144.00
1031.68	6074.00
1032.11	6074.00
1032.53	5931.00
1032.95	5952.00
1033.37	5949.00
1033.80	5863.00
1034.22	5769.00
1034.64	5779.00
1035.06	5669.00
1035.49	5594.00
1035.91	5629.00
1036.33	5507.00
1036.75	5580.00
1037.18	5553.00
1037.60	5637.00
1038.02	5566.00
1038.44	5633.00
1038.87	5579.00
1039.29	5586.00
1039.71	5572.00
1040.13	5508.00
1040.55	5673.00
1040.98	5617.00
1041.40	5549.00
1041.82	5604.00
1042.24	5512.00
1042.66	5537.00
1043.09	5379.00
1043.51	5395.00
1043.93	5338.00
1044.35	5254.00
1044.77	5287.00
1045.20	5252.00
1045.62	5182.00
1046.04	5122.00
1046.46	5167.00
1046.88	5089.00
1047.30	5102.00
1047.72	5061.00
1048.15	5093.00
1048.57	5009.00
1048.99	5006.00
1049.41	5042.00
1049.83	4988.00
1050.25	5069.00
1050.67	5041.00
1051.09	5012.00
1051.52	4980.00
1051.94	4903.00
1052.36	5020.00
1052.78	4953.00
1053.20	4875.00
1053.62	4897.00
1054.04	4906.00
1054.46	4859.00
1054.88	4924.00
1055.30	4861.00
1055.72	4850.00
1056.14	4756.00
1056.57	4916.00
1056.99	4621.00
1057.41	4753.00
1057.83	4697.00
1058.25	4603.00
1058.67	4608.00
1059.09	4565.00
1059.51	4617.00
1059.93	4537.00
1060.35	4537.00
1060.77	4537.00
1061.19	4519.00
1061.61	4522.00
1062.03	4513.00
1062.45	4423.00
1062.87	4548.00
1063.29	4486.00
1063.71	4470.00
1064.13	4379.00
1064.55	4389.00
1064.97	4456.00
1065.39	4469.00
1065.81	4435.00
1066.23	4424.00
1066.65	4351.00
1067.07	4441.00
1067.49	4346.00
1067.91	4331.00
1068.33	4271.00
1068.75	4340.00
1069.17	4319.00
1069.59	4313.00
1070.00	4185.00
1070.42	4257.00
1070.84	4156.00
1071.26	4137.00
1071.68	4187.00
1072.10	4203.00
1072.52	4179.00
1072.94	4136.00
1073.36	4162.00
1073.78	4105.00
1074.20	4154.00
1074.62	4157.00
1075.03	4083.00
1075.45	4163.00
1075.87	4209.00
1076.29	4083.00
1076.71	4171.00
1077.13	4162.00
1077.55	4047.00
1077.97	4080.00
1078.38	4031.00
1078.80	4043.00
1079.22	4051.00
1079.64	4068.00
1080.06	3965.00
1080.48	3994.00
1080.89	3973.00
1081.31	3992.00
1081.73	3957.00
1082.15	3963.00
1082.57	4017.00
1082.99	3905.00
1083.40	3921.00
1083.82	3979.00
1084.24	3838.00
1084.66	3903.00
1085.08	3895.00
1085.49	3807.00
1085.91	3892.00
1086.33	5116.00
1086.75	3865.00
1087.17	3839.00
1087.58	3822.00
1088.00	3875.00
1088.42	3922.00
1088.84	3837.00
1089.25	3763.00
1089.67	3806.00
1090.09	3797.00
1090.51	3802.00
1090.92	3826.00
1091.34	3749.00
1091.76	3772.00
1092.18	3720.00
1092.59	3728.00
1093.01	3707.00
1093.43	3696.00
1093.84	3695.00
1094.26	3649.00
1094.68	3685.00
1095.10	3609.00
1095.51	3671.00
1095.93	3646.00
1096.35	3653.00
1096.76	3659.00
1097.18	3690.00
1097.60	3661.00
1098.01	3670.00
1098.43	3558.00
1098.85	3646.00
1099.26	3579.00
1099.68	3577.00
1100.10	3551.00
1100.51	3530.00
1100.93	3557.00
1101.35	3557.00
1101.76	3538.00
1102.18	4002.00
1102.60	3610.00
1103.01	3431.00
1103.43	3500.00
1103.84	3517.00
1104.26	3463.00
1104.68	3482.00
1105.09	3411.00
1105.51	3430.00
1105.92	3527.00
1106.34	3421.00
1106.76	3504.00
1107.17	3443.00
1107.59	3484.00
1108.00	3358.00
1108.42	3460.00
1108.83	3369.00
1109.25	3355.00
1109.67	3353.00
1110.08	3385.00
1110.50	3307.00
1110.91	3380.00
1111.33	3307.00
1111.74	3308.00
1112.16	3339.00
1112.57	3355.00
1112.99	3300.00
1113.41	3309.00
1113.82	3277.00
1114.24	3309.00
1114.65	3271.00
1115.07	3183.00
1115.48	3098.00
1115.90	2194.00
1116.31	2206.00
1116.73	2213.00
1117.14	2212.00
>>>>>End Processed Spectral Data<<<<<
