SpectraSuite Data File
++++++++++++++++++++++++++++++++++++
Date: Tue May 29 13:10:28 EEST 2018
User: CanSEE
Dark Spectrum Present: No
Reference Spectrum Present: No
Number of Sampled Component Spectra: 1
Spectrometers: MAYP11278
Integration Time (usec): 230000 (MAYP11278)
Spectra Averaged: 1 (MAYP11278)
Boxcar Smoothing: 0 (MAYP11278)
Correct for Electrical Dark: No (MAYP11278)
Strobe/Lamp Enabled: No (MAYP11278)
Correct for Detector Non-linearity: No (MAYP11278)
Correct for Stray Light: No (MAYP11278)
Number of Pixels in Processed Spectrum: 2068
>>>>>Begin Processed Spectral Data<<<<<
187.82	2343.00
188.30	2232.00
188.78	2212.00
189.26	2207.00
189.73	3173.00
190.21	3311.00
190.69	3401.00
191.17	3393.00
191.64	3472.00
192.12	3398.00
192.60	3417.00
193.07	3349.00
193.55	3415.00
194.03	3437.00
194.51	3425.00
194.98	3410.00
195.46	3441.00
195.94	3424.00
196.42	3396.00
196.89	3477.00
197.37	3420.00
197.85	3381.00
198.32	3448.00
198.80	3398.00
199.28	3414.00
199.76	3401.00
200.23	3412.00
200.71	3427.00
201.19	3451.00
201.66	3413.00
202.14	3481.00
202.62	3395.00
203.09	3418.00
203.57	3377.00
204.05	3455.00
204.53	3483.00
205.00	3427.00
205.48	3385.00
205.96	3482.00
206.43	3406.00
206.91	3440.00
207.39	3542.00
207.86	3415.00
208.34	3449.00
208.82	3415.00
209.29	3461.00
209.77	3476.00
210.25	3399.00
210.72	3395.00
211.20	3441.00
211.68	3417.00
212.15	3399.00
212.63	3520.00
213.11	3459.00
213.58	3392.00
214.06	3523.00
214.53	3415.00
215.01	3457.00
215.49	3484.00
215.96	3463.00
216.44	3447.00
216.92	3472.00
217.39	3445.00
217.87	3471.00
218.35	3471.00
218.82	3381.00
219.30	3441.00
219.77	3405.00
220.25	3448.00
220.73	3562.00
221.20	3415.00
221.68	3467.00
222.15	3412.00
222.63	3472.00
223.11	3380.00
223.58	3477.00
224.06	3449.00
224.53	3447.00
225.01	3426.00
225.49	3435.00
225.96	3429.00
226.44	3431.00
226.91	3459.00
227.39	3429.00
227.87	3508.00
228.34	3431.00
228.82	3469.00
229.29	3411.00
229.77	3460.00
230.24	3453.00
230.72	3437.00
231.20	3483.00
231.67	3465.00
232.15	3446.00
232.62	3416.00
233.10	3466.00
233.57	3431.00
234.05	3602.00
234.53	3441.00
235.00	3397.00
235.48	3409.00
235.95	3459.00
236.43	3490.00
236.90	3526.00
237.38	3406.00
237.85	3477.00
238.33	3453.00
238.80	3435.00
239.28	3471.00
239.75	3405.00
240.23	3448.00
240.71	3508.00
241.18	3421.00
241.66	3422.00
242.13	3455.00
242.61	3491.00
243.08	3399.00
243.56	3395.00
244.03	3475.00
244.51	3520.00
244.98	3433.00
245.46	3496.00
245.93	4775.00
246.41	3383.00
246.88	3464.00
247.36	3450.00
247.83	3452.00
248.31	3440.00
248.78	3363.00
249.26	3475.00
249.73	3455.00
250.21	3449.00
250.68	3533.00
251.16	3494.00
251.63	3535.00
252.10	3456.00
252.58	3463.00
253.05	3500.00
253.53	3467.00
254.00	3453.00
254.48	3466.00
254.95	3458.00
255.43	3509.00
255.90	3490.00
256.38	3463.00
256.85	3452.00
257.33	3496.00
257.80	3592.00
258.27	3489.00
258.75	3426.00
259.22	3458.00
259.70	3464.00
260.17	3522.00
260.65	3429.00
261.12	3429.00
261.59	3565.00
262.07	3433.00
262.54	3488.00
263.02	3461.00
263.49	3448.00
263.97	3511.00
264.44	3520.00
264.91	3457.00
265.39	3471.00
265.86	3497.00
266.34	3519.00
266.81	3455.00
267.28	3473.00
267.76	3446.00
268.23	3468.00
268.71	3363.00
269.18	3385.00
269.65	3417.00
270.13	3423.00
270.60	3482.00
271.08	3430.00
271.55	3481.00
272.02	3421.00
272.50	3447.00
272.97	3420.00
273.44	3476.00
273.92	3582.00
274.39	3456.00
274.87	3486.00
275.34	3426.00
275.81	3430.00
276.29	3431.00
276.76	3465.00
277.23	3360.00
277.71	3363.00
278.18	3314.00
278.65	3533.00
279.13	3364.00
279.60	3432.00
280.07	3767.00
280.55	3701.00
281.02	3757.00
281.50	3486.00
281.97	3616.00
282.44	3500.00
282.91	3503.00
283.39	3513.00
283.86	3449.00
284.33	3442.00
284.81	3562.00
285.28	3524.00
285.75	3475.00
286.23	3528.00
286.70	3408.00
287.17	3545.00
287.65	3535.00
288.12	3475.00
288.59	3495.00
289.07	3381.00
289.54	3532.00
290.01	3452.00
290.48	3471.00
290.96	3458.00
291.43	3508.00
291.90	3570.00
292.38	3411.00
292.85	3510.00
293.32	3465.00
293.79	3498.00
294.27	3493.00
294.74	3480.00
295.21	3459.00
295.69	3473.00
296.16	3536.00
296.63	3513.00
297.10	3506.00
297.58	3524.00
298.05	3496.00
298.52	3459.00
298.99	3548.00
299.47	3437.00
299.94	3492.00
300.41	3453.00
300.88	3539.00
301.36	3502.00
301.83	3512.00
302.30	3446.00
302.77	3508.00
303.25	3508.00
303.72	3439.00
304.19	3458.00
304.66	3443.00
305.13	3503.00
305.61	3521.00
306.08	3495.00
306.55	3497.00
307.02	3433.00
307.49	3475.00
307.97	3491.00
308.44	3457.00
308.91	3516.00
309.38	3547.00
309.86	3501.00
310.33	3478.00
310.80	3551.00
311.27	3496.00
311.74	3525.00
312.21	3530.00
312.69	3545.00
313.16	3470.00
313.63	3490.00
314.10	3504.00
314.57	3447.00
315.05	3483.00
315.52	3477.00
315.99	3534.00
316.46	3515.00
316.93	3545.00
317.40	3485.00
317.88	3647.00
318.35	3556.00
318.82	3514.00
319.29	3437.00
319.76	3512.00
320.23	3595.00
320.70	3506.00
321.18	3507.00
321.65	3397.00
322.12	3474.00
322.59	3558.00
323.06	3474.00
323.53	3619.00
324.00	3443.00
324.48	3554.00
324.95	3530.00
325.42	3511.00
325.89	3459.00
326.36	3507.00
326.83	3548.00
327.30	3557.00
327.77	3543.00
328.24	3552.00
328.72	3499.00
329.19	3511.00
329.66	3502.00
330.13	3506.00
330.60	3570.00
331.07	3509.00
331.54	3597.00
332.01	3479.00
332.48	3594.00
332.95	3523.00
333.43	3554.00
333.90	3581.00
334.37	3527.00
334.84	3567.00
335.31	3686.00
335.78	3489.00
336.25	3533.00
336.72	3501.00
337.19	3514.00
337.66	3503.00
338.13	3512.00
338.60	3593.00
339.07	3555.00
339.54	3455.00
340.01	3464.00
340.49	3450.00
340.96	3527.00
341.43	3573.00
341.90	3465.00
342.37	3531.00
342.84	3528.00
343.31	3520.00
343.78	3483.00
344.25	3520.00
344.72	3481.00
345.19	3492.00
345.66	3536.00
346.13	3528.00
346.60	3444.00
347.07	3597.00
347.54	3528.00
348.01	3583.00
348.48	3519.00
348.95	3494.00
349.42	3545.00
349.89	3506.00
350.36	3535.00
350.83	3473.00
351.30	3531.00
351.77	3592.00
352.24	3530.00
352.71	3511.00
353.18	3516.00
353.65	3515.00
354.12	3526.00
354.59	3556.00
355.06	3502.00
355.53	3605.00
356.00	3465.00
356.47	3625.00
356.94	3474.00
357.41	3637.00
357.88	3565.00
358.35	3489.00
358.82	3499.00
359.28	3517.00
359.75	3479.00
360.22	3580.00
360.69	3569.00
361.16	3501.00
361.63	3532.00
362.10	3539.00
362.57	3518.00
363.04	3535.00
363.51	3605.00
363.98	3562.00
364.45	3506.00
364.92	3582.00
365.39	3508.00
365.86	3459.00
366.32	3565.00
366.79	3545.00
367.26	4435.00
367.73	3556.00
368.20	3490.00
368.67	3568.00
369.14	3479.00
369.61	3577.00
370.08	3549.00
370.55	3499.00
371.02	4179.00
371.48	3543.00
371.95	3471.00
372.42	3446.00
372.89	3567.00
373.36	3511.00
373.83	3501.00
374.30	3522.00
374.77	3526.00
375.23	3459.00
375.70	3541.00
376.17	3526.00
376.64	3481.00
377.11	3447.00
377.58	3506.00
378.05	3500.00
378.51	3515.00
378.98	3502.00
379.45	3491.00
379.92	3542.00
380.39	3641.00
380.86	3521.00
381.33	3622.00
381.79	3563.00
382.26	3485.00
382.73	3557.00
383.20	3529.00
383.67	3533.00
384.14	3513.00
384.60	3737.00
385.07	3543.00
385.54	3514.00
386.01	3509.00
386.48	3613.00
386.94	3486.00
387.41	3491.00
387.88	3586.00
388.35	3560.00
388.82	3538.00
389.28	3477.00
389.75	3530.00
390.22	3527.00
390.69	3520.00
391.16	3523.00
391.62	3538.00
392.09	3518.00
392.56	3507.00
393.03	3505.00
393.50	3655.00
393.96	3541.00
394.43	3584.00
394.90	3451.00
395.37	3543.00
395.83	3716.00
396.30	3464.00
396.77	3555.00
397.24	3541.00
397.70	3487.00
398.17	3529.00
398.64	3472.00
399.11	3467.00
399.57	3557.00
400.04	3494.00
400.51	3517.00
400.98	3495.00
401.44	3544.00
401.91	3546.00
402.38	3531.00
402.84	3541.00
403.31	3608.00
403.78	3521.00
404.25	3593.00
404.71	3632.00
405.18	3579.00
405.65	3499.00
406.12	3589.00
406.58	3547.00
407.05	3613.00
407.52	3577.00
407.98	4021.00
408.45	3503.00
408.92	3475.00
409.38	3581.00
409.85	3493.00
410.32	3595.00
410.78	3511.00
411.25	3572.00
411.72	3527.00
412.18	3499.00
412.65	3536.00
413.12	3531.00
413.59	3558.00
414.05	3555.00
414.52	3627.00
414.98	3535.00
415.45	3661.00
415.92	3584.00
416.38	3531.00
416.85	3611.00
417.32	3563.00
417.78	3573.00
418.25	3520.00
418.72	3566.00
419.18	3607.00
419.65	3486.00
420.12	3616.00
420.58	3533.00
421.05	3566.00
421.51	3528.00
421.98	3594.00
422.45	3527.00
422.91	3561.00
423.38	3597.00
423.85	3594.00
424.31	3573.00
424.78	3619.00
425.24	3588.00
425.71	3642.00
426.18	3577.00
426.64	3677.00
427.11	3637.00
427.57	3628.00
428.04	3533.00
428.51	3611.00
428.97	3600.00
429.44	3578.00
429.90	3610.00
430.37	3747.00
430.83	3515.00
431.30	3607.00
431.77	3699.00
432.23	3673.00
432.70	3606.00
433.16	3551.00
433.63	3581.00
434.09	3572.00
434.56	3659.00
435.03	3580.00
435.49	3656.00
435.96	3621.00
436.42	3571.00
436.89	3659.00
437.35	3615.00
437.82	3623.00
438.28	3597.00
438.75	3588.00
439.21	3784.00
439.68	3615.00
440.14	3674.00
440.61	3720.00
441.07	3616.00
441.54	3622.00
442.00	3743.00
442.47	3593.00
442.94	3629.00
443.40	3675.00
443.87	3580.00
444.33	3720.00
444.80	3672.00
445.26	3668.00
445.73	3639.00
446.19	3656.00
446.65	3668.00
447.12	3703.00
447.58	3625.00
448.05	3633.00
448.51	3699.00
448.98	3724.00
449.44	3631.00
449.91	3649.00
450.37	3668.00
450.84	3652.00
451.30	3675.00
451.77	3705.00
452.23	3627.00
452.70	3730.00
453.16	3635.00
453.62	3630.00
454.09	3662.00
454.55	3714.00
455.02	3638.00
455.48	3708.00
455.95	3681.00
456.41	3636.00
456.88	3713.00
457.34	3677.00
457.80	3652.00
458.27	3618.00
458.73	3659.00
459.20	3698.00
459.66	3665.00
460.13	3632.00
460.59	3564.00
461.05	3687.00
461.52	3637.00
461.98	3627.00
462.45	3577.00
462.91	3626.00
463.37	3579.00
463.84	3625.00
464.30	3571.00
464.76	3558.00
465.23	3591.00
465.69	3620.00
466.16	3609.00
466.62	3592.00
467.08	3609.00
467.55	3609.00
468.01	3566.00
468.48	3598.00
468.94	3566.00
469.40	3520.00
469.87	3596.00
470.33	3536.00
470.79	3529.00
471.26	3531.00
471.72	3537.00
472.18	3543.00
472.65	3579.00
473.11	3608.00
473.57	3565.00
474.04	3549.00
474.50	3540.00
474.96	3508.00
475.43	3553.00
475.89	3533.00
476.35	3520.00
476.82	3557.00
477.28	3555.00
477.74	3624.00
478.21	3562.00
478.67	3576.00
479.13	3532.00
479.59	3608.00
480.06	3551.00
480.52	3499.00
480.98	3536.00
481.45	3544.00
481.91	3572.00
482.37	3500.00
482.84	3519.00
483.30	3445.00
483.76	3526.00
484.22	3590.00
484.69	3505.00
485.15	3475.00
485.61	3434.00
486.07	3479.00
486.54	3468.00
487.00	3490.00
487.46	3472.00
487.92	3477.00
488.39	3489.00
488.85	3521.00
489.31	3555.00
489.77	3566.00
490.24	3459.00
490.70	3503.00
491.16	3470.00
491.62	3487.00
492.09	3426.00
492.55	3595.00
493.01	3551.00
493.47	3557.00
493.94	3541.00
494.40	3551.00
494.86	3523.00
495.32	3515.00
495.78	3537.00
496.25	3533.00
496.71	3569.00
497.17	3635.00
497.63	3607.00
498.09	3517.00
498.56	3570.00
499.02	3572.00
499.48	3637.00
499.94	3596.00
500.40	3564.00
500.87	3606.00
501.33	3539.00
501.79	3651.00
502.25	3604.00
502.71	3858.00
503.17	3632.00
503.64	3629.00
504.10	3617.00
504.56	3651.00
505.02	3637.00
505.48	3627.00
505.94	3671.00
506.40	3715.00
506.87	3641.00
507.33	3718.00
507.79	3736.00
508.25	3716.00
508.71	3656.00
509.17	3721.00
509.63	3745.00
510.10	3780.00
510.56	3777.00
511.02	3896.00
511.48	3922.00
511.94	3821.00
512.40	3773.00
512.86	3855.00
513.32	3876.00
513.78	3788.00
514.25	3954.00
514.71	4517.00
515.17	3901.00
515.63	3963.00
516.09	4025.00
516.55	3963.00
517.01	4063.00
517.47	3994.00
517.93	4001.00
518.39	4209.00
518.85	4121.00
519.32	4114.00
519.78	4135.00
520.24	4156.00
520.70	4205.00
521.16	4295.00
521.62	4408.00
522.08	4376.00
522.54	4361.00
523.00	4439.00
523.46	4494.00
523.92	4545.00
524.38	4686.00
524.84	4578.00
525.30	4642.00
525.76	4579.00
526.22	4577.00
526.68	4572.00
527.14	4630.00
527.60	4711.00
528.06	4790.00
528.52	4881.00
528.98	4833.00
529.44	4812.00
529.90	4899.00
530.36	4949.00
530.82	4902.00
531.28	4964.00
531.74	4980.00
532.20	4881.00
532.66	4897.00
533.12	5019.00
533.58	4997.00
534.04	5021.00
534.50	5035.00
534.96	5097.00
535.42	5187.00
535.88	5163.00
536.34	5124.00
536.80	5064.00
537.26	5187.00
537.72	5168.00
538.18	5195.00
538.64	5309.00
539.10	5253.00
539.56	5406.00
540.02	5113.00
540.48	5225.00
540.94	5189.00
541.40	5252.00
541.86	5259.00
542.32	5277.00
542.78	5266.00
543.24	5469.00
543.69	5290.00
544.15	5465.00
544.61	5402.00
545.07	5428.00
545.53	5376.00
545.99	5391.00
546.45	5387.00
546.91	5367.00
547.37	5350.00
547.83	5408.00
548.29	5386.00
548.74	5448.00
549.20	5461.00
549.66	5565.00
550.12	5499.00
550.58	5422.00
551.04	5472.00
551.50	5580.00
551.96	5626.00
552.42	5491.00
552.87	5443.00
553.33	5531.00
553.79	5475.00
554.25	5443.00
554.71	5512.00
555.17	5542.00
555.63	5636.00
556.08	5495.00
556.54	5527.00
557.00	5382.00
557.46	5470.00
557.92	5605.00
558.38	5393.00
558.83	5335.00
559.29	5334.00
559.75	5349.00
560.21	5360.00
560.67	5471.00
561.13	5411.00
561.58	5361.00
562.04	5361.00
562.50	5356.00
562.96	5381.00
563.42	5347.00
563.87	5264.00
564.33	5255.00
564.79	5300.00
565.25	5221.00
565.71	5203.00
566.16	5280.00
566.62	5181.00
567.08	5211.00
567.54	5172.00
568.00	5151.00
568.45	5106.00
568.91	5112.00
569.37	5074.00
569.83	5008.00
570.28	4989.00
570.74	5002.00
571.20	4960.00
571.66	4941.00
572.11	4987.00
572.57	4999.00
573.03	4932.00
573.49	4901.00
573.94	4871.00
574.40	4917.00
574.86	4853.00
575.32	4770.00
575.77	4761.00
576.23	4717.00
576.69	4862.00
577.15	4759.00
577.60	4740.00
578.06	4658.00
578.52	4784.00
578.97	4737.00
579.43	4632.00
579.89	4747.00
580.34	4672.00
580.80	4684.00
581.26	4683.00
581.72	4648.00
582.17	4666.00
582.63	4671.00
583.09	4592.00
583.54	4622.00
584.00	4619.00
584.46	4658.00
584.91	4603.00
585.37	4647.00
585.83	4541.00
586.28	4577.00
586.74	4503.00
587.20	4570.00
587.65	4603.00
588.11	4405.00
588.57	4432.00
589.02	4381.00
589.48	4375.00
589.94	4417.00
590.39	4479.00
590.85	4424.00
591.30	4459.00
591.76	4497.00
592.22	4434.00
592.67	4489.00
593.13	4447.00
593.59	4474.00
594.04	4431.00
594.50	4423.00
594.95	4530.00
595.41	4443.00
595.87	4426.00
596.32	4547.00
596.78	4469.00
597.23	4533.00
597.69	4375.00
598.15	4375.00
598.60	4419.00
599.06	4533.00
599.51	4418.00
599.97	4474.00
600.43	4498.00
600.88	4399.00
601.34	4417.00
601.79	4366.00
602.25	4533.00
602.70	4379.00
603.16	4443.00
603.61	4331.00
604.07	4401.00
604.53	4393.00
604.98	4411.00
605.44	4404.00
605.89	4338.00
606.35	4278.00
606.80	4364.00
607.26	4383.00
607.71	4314.00
608.17	4296.00
608.62	4255.00
609.08	4449.00
609.53	4352.00
609.99	4306.00
610.44	4259.00
610.90	4292.00
611.35	4254.00
611.81	4397.00
612.26	4286.00
612.72	4219.00
613.17	4331.00
613.63	4167.00
614.08	4150.00
614.54	4161.00
614.99	4143.00
615.45	4152.00
615.90	4131.00
616.36	4134.00
616.81	4116.00
617.27	4183.00
617.72	4151.00
618.18	4145.00
618.63	4097.00
619.09	4115.00
619.54	4165.00
619.99	4131.00
620.45	4122.00
620.90	4161.00
621.36	4085.00
621.81	4172.00
622.27	4180.00
622.72	4123.00
623.18	4049.00
623.63	4096.00
624.08	4115.00
624.54	4027.00
624.99	4045.00
625.45	4071.00
625.90	4013.00
626.35	4111.00
626.81	4145.00
627.26	4062.00
627.72	4107.00
628.17	4106.00
628.62	3989.00
629.08	4053.00
629.53	4084.00
629.99	4045.00
630.44	4077.00
630.89	4076.00
631.35	4052.00
631.80	4111.00
632.26	4041.00
632.71	4064.00
633.16	4023.00
633.62	4026.00
634.07	4079.00
634.52	4017.00
634.98	4012.00
635.43	3999.00
635.88	3985.00
636.34	4047.00
636.79	4003.00
637.24	3963.00
637.70	4048.00
638.15	4120.00
638.60	3982.00
639.06	3980.00
639.51	3974.00
639.96	3935.00
640.42	3959.00
640.87	3986.00
641.32	3935.00
641.78	3871.00
642.23	3906.00
642.68	3842.00
643.14	3861.00
643.59	3911.00
644.04	3863.00
644.49	3814.00
644.95	3859.00
645.40	3799.00
645.85	3814.00
646.31	3841.00
646.76	3821.00
647.21	3834.00
647.66	3808.00
648.12	3794.00
648.57	3790.00
649.02	3814.00
649.47	3787.00
649.93	3961.00
650.38	3740.00
650.83	3745.00
651.28	3783.00
651.74	3711.00
652.19	3720.00
652.64	3776.00
653.09	3751.00
653.55	3700.00
654.00	3729.00
654.45	3739.00
654.90	3691.00
655.35	3635.00
655.81	3683.00
656.26	3589.00
656.71	3631.00
657.16	3679.00
657.62	3699.00
658.07	3636.00
658.52	3643.00
658.97	3643.00
659.42	3836.00
659.88	3640.00
660.33	3693.00
660.78	3643.00
661.23	3632.00
661.68	3626.00
662.13	3562.00
662.59	3561.00
663.04	3613.00
663.49	3555.00
663.94	3545.00
664.39	3567.00
664.84	3526.00
665.30	3603.00
665.75	3530.00
666.20	3588.00
666.65	3561.00
667.10	3679.00
667.55	3611.00
668.00	3503.00
668.46	3589.00
668.91	3493.00
669.36	3635.00
669.81	3429.00
670.26	3503.00
670.71	3567.00
671.16	3535.00
671.61	3613.00
672.06	3589.00
672.52	3518.00
672.97	3516.00
673.42	3586.00
673.87	3709.00
674.32	3527.00
674.77	3526.00
675.22	3441.00
675.67	3493.00
676.12	3513.00
676.57	3480.00
677.02	3513.00
677.47	3514.00
677.93	3615.00
678.38	3504.00
678.83	3503.00
679.28	3519.00
679.73	3486.00
680.18	3467.00
680.63	3507.00
681.08	3475.00
681.53	3420.00
681.98	3515.00
682.43	3551.00
682.88	3560.00
683.33	3574.00
683.78	3544.00
684.23	3587.00
684.68	3571.00
685.13	3607.00
685.58	3603.00
686.03	3573.00
686.48	3522.00
686.93	3581.00
687.38	3524.00
687.83	3589.00
688.28	3639.00
688.73	3779.00
689.18	3701.00
689.63	3619.00
690.08	3711.00
690.53	3759.00
690.98	3751.00
691.43	3846.00
691.88	3844.00
692.33	3913.00
692.78	3965.00
693.23	4063.00
693.68	4084.00
694.13	4125.00
694.58	4199.00
695.03	4487.00
695.48	4352.00
695.93	4439.00
696.38	4584.00
696.83	4556.00
697.28	4657.00
697.72	4781.00
698.17	4822.00
698.62	4987.00
699.07	5065.00
699.52	5087.00
699.97	5127.00
700.42	5313.00
700.87	5414.00
701.32	5574.00
701.77	5440.00
702.22	5671.00
702.67	5724.00
703.11	5833.00
703.56	5988.00
704.01	6114.00
704.46	6289.00
704.91	6411.00
705.36	6469.00
705.81	6526.00
706.26	6531.00
706.70	6745.00
707.15	6843.00
707.60	6922.00
708.05	6997.00
708.50	7219.00
708.95	7314.00
709.40	7315.00
709.84	7511.00
710.29	7543.00
710.74	7657.00
711.19	7795.00
711.64	7858.00
712.09	7957.00
712.53	8081.00
712.98	8285.00
713.43	8211.00
713.88	8427.00
714.33	8494.00
714.78	8457.00
715.22	8576.00
715.67	8670.00
716.12	8530.00
716.57	8276.00
717.02	8119.00
717.46	7997.00
717.91	8071.00
718.36	8053.00
718.81	7923.00
719.26	7936.00
719.70	8166.00
720.15	8165.00
720.60	8510.00
721.05	9041.00
721.49	9363.00
721.94	9581.00
722.39	9590.00
722.84	9486.00
723.28	9203.00
723.73	9179.00
724.18	9190.00
724.63	9431.00
725.07	9396.00
725.52	9488.00
725.97	9725.00
726.42	9907.00
726.86	10050.00
727.31	9909.00
727.76	10003.00
728.21	10248.00
728.65	10204.00
729.10	10177.00
729.55	10379.00
729.99	10618.00
730.44	10631.00
730.89	10863.00
731.33	11057.00
731.78	11267.00
732.23	11486.00
732.68	11664.00
733.12	11839.00
733.57	12080.00
734.02	12253.00
734.46	12426.00
734.91	12297.00
735.36	12515.00
735.80	12730.00
736.25	12508.00
736.70	12759.00
737.14	12915.00
737.59	12924.00
738.04	12985.00
738.48	12907.00
738.93	13040.00
739.37	13021.00
739.82	13443.00
740.27	13404.00
740.71	13361.00
741.16	13452.00
741.61	13445.00
742.05	13545.00
742.50	13620.00
742.94	13771.00
743.39	13757.00
743.84	13738.00
744.28	13862.00
744.73	13920.00
745.18	13913.00
745.62	14077.00
746.07	14171.00
746.51	14089.00
746.96	14074.00
747.40	14047.00
747.85	14115.00
748.30	14050.00
748.74	14104.00
749.19	14058.00
749.63	14202.00
750.08	14139.00
750.52	14190.00
750.97	13954.00
751.42	14087.00
751.86	14159.00
752.31	14028.00
752.75	14037.00
753.20	14023.00
753.64	14035.00
754.09	14076.00
754.53	14201.00
754.98	14139.00
755.42	14205.00
755.87	14109.00
756.31	14127.00
756.76	13997.00
757.20	13938.00
757.65	13663.00
758.09	13735.00
758.54	13206.00
758.98	11996.00
759.43	9842.00
759.87	7689.00
760.32	6410.00
760.76	6264.00
761.21	7184.00
761.65	8416.00
762.10	8787.00
762.54	8371.00
762.99	7996.00
763.43	8196.00
763.88	8524.00
764.32	9065.00
764.77	9777.00
765.21	10267.00
765.66	10839.00
766.10	11365.00
766.54	11911.00
766.99	12241.00
767.43	12883.00
767.88	12849.00
768.32	13243.00
768.77	13245.00
769.21	13584.00
769.66	13672.00
770.10	13770.00
770.54	13957.00
770.99	13943.00
771.43	13943.00
771.88	13831.00
772.32	13768.00
772.76	13833.00
773.21	13941.00
773.65	13852.00
774.10	13787.00
774.54	13655.00
774.98	13848.00
775.43	14004.00
775.87	14021.00
776.31	14040.00
776.76	14164.00
777.20	13953.00
777.65	13855.00
778.09	13818.00
778.53	13835.00
778.98	13846.00
779.42	13901.00
779.86	13796.00
780.31	13844.00
780.75	13843.00
781.19	13806.00
781.64	13690.00
782.08	13972.00
782.52	13766.00
782.97	13749.00
783.41	13664.00
783.85	13559.00
784.30	13445.00
784.74	13557.00
785.18	13395.00
785.63	13348.00
786.07	13367.00
786.51	13504.00
786.95	13454.00
787.40	13491.00
787.84	13391.00
788.28	13362.00
788.73	13224.00
789.17	13053.00
789.61	12919.00
790.05	12887.00
790.50	12817.00
790.94	12787.00
791.38	12913.00
791.82	12865.00
792.27	12932.00
792.71	12952.00
793.15	13239.00
793.59	12967.00
794.04	12877.00
794.48	12823.00
794.92	12657.00
795.36	12593.00
795.81	12503.00
796.25	12537.00
796.69	12596.00
797.13	12689.00
797.57	12688.00
798.02	12787.00
798.46	12916.00
798.90	12894.00
799.34	12735.00
799.79	12680.00
800.23	12483.00
800.67	12289.00
801.11	12359.00
801.55	12357.00
801.99	12163.00
802.44	12337.00
802.88	12359.00
803.32	12531.00
803.76	12496.00
804.20	12647.00
804.64	12447.00
805.09	12549.00
805.53	12576.00
805.97	12371.00
806.41	12222.00
806.85	12222.00
807.29	12052.00
807.74	11982.00
808.18	11939.00
808.62	12057.00
809.06	11971.00
809.50	11979.00
809.94	12142.00
810.38	12051.00
810.82	12183.00
811.27	12051.00
811.71	11691.00
812.15	11529.00
812.59	11281.00
813.03	11126.00
813.47	10896.00
813.91	10501.00
814.35	10419.00
814.79	10428.00
815.23	10235.00
815.67	10071.00
816.12	10243.00
816.56	10143.00
817.00	10278.00
817.44	10310.00
817.88	10287.00
818.32	10237.00
818.76	10207.00
819.20	10348.00
819.64	10355.00
820.08	10388.00
820.52	10607.00
820.96	10775.00
821.40	10637.00
821.84	10377.00
822.28	9890.00
822.72	9859.00
823.16	9803.00
823.60	10207.00
824.04	10774.00
824.48	10948.00
824.92	10936.00
825.36	10918.00
825.80	10752.00
826.24	10798.00
826.68	10592.00
827.12	10516.00
827.56	10446.00
828.00	10466.00
828.44	10433.00
828.88	10669.00
829.32	10653.00
829.76	10734.00
830.20	10817.00
830.64	10649.00
831.08	10820.00
831.52	10594.00
831.96	10487.00
832.40	10235.00
832.84	10458.00
833.28	10491.00
833.72	10631.00
834.16	10915.00
834.60	10998.00
835.04	11114.00
835.48	11286.00
835.91	11156.00
836.35	11088.00
836.79	11151.00
837.23	10987.00
837.67	10856.00
838.11	10871.00
838.55	10934.00
838.99	10943.00
839.43	11085.00
839.87	11212.00
840.30	11219.00
840.74	11292.00
841.18	11423.00
841.62	11383.00
842.06	11388.00
842.50	11406.00
842.94	11275.00
843.38	11147.00
843.81	11033.00
844.25	11033.00
844.69	10798.00
845.13	10826.00
845.57	10917.00
846.01	10973.00
846.45	10973.00
846.88	11051.00
847.32	11239.00
847.76	11200.00
848.20	11362.00
848.64	11381.00
849.08	11079.00
849.51	11142.00
849.95	10836.00
850.39	10975.00
850.83	11007.00
851.27	10906.00
851.70	10781.00
852.14	10809.00
852.58	10534.00
853.02	10277.00
853.46	10159.00
853.89	10036.00
854.33	10055.00
854.77	10368.00
855.21	10963.00
855.65	11138.00
856.08	11406.00
856.52	11292.00
856.96	11277.00
857.40	10985.00
857.83	10905.00
858.27	10775.00
858.71	10494.00
859.15	10545.00
859.58	10657.00
860.02	10771.00
860.46	10860.00
860.89	11012.00
861.33	11095.00
861.77	11077.00
862.21	11353.00
862.64	11178.00
863.08	11192.00
863.52	11148.00
863.95	11005.00
864.39	10831.00
864.83	10497.00
865.27	10121.00
865.70	10094.00
866.14	9880.00
866.58	9951.00
867.01	10262.00
867.45	10556.00
867.89	10779.00
868.32	11019.00
868.76	11082.00
869.20	11125.00
869.63	11171.00
870.07	11012.00
870.51	10712.00
870.94	10535.00
871.38	10392.00
871.82	10219.00
872.25	10320.00
872.69	10251.00
873.13	10228.00
873.56	10401.00
874.00	10511.00
874.43	10601.00
874.87	10684.00
875.31	10833.00
875.74	10756.00
876.18	11051.00
876.61	10888.00
877.05	10767.00
877.49	10681.00
877.92	10533.00
878.36	10400.00
878.79	10290.00
879.23	10203.00
879.67	9890.00
880.10	9990.00
880.54	9957.00
880.97	10157.00
881.41	10268.00
881.84	10524.00
882.28	10710.00
882.72	10736.00
883.15	10859.00
883.59	10905.00
884.02	10957.00
884.46	10835.00
884.89	10707.00
885.33	10603.00
885.76	10093.00
886.20	10004.00
886.63	10125.00
887.07	9854.00
887.50	9932.00
887.94	9927.00
888.37	10047.00
888.81	10286.00
889.24	10216.00
889.68	10361.00
890.11	10317.00
890.55	10493.00
890.98	10589.00
891.42	10561.00
891.85	10353.00
892.29	10329.00
892.72	10033.00
893.16	9898.00
893.59	9729.00
894.03	9545.00
894.46	9264.00
894.90	8999.00
895.33	8701.00
895.77	8711.00
896.20	8723.00
896.63	8687.00
897.07	8656.00
897.50	8561.00
897.94	8705.00
898.37	9080.00
898.81	8483.00
899.24	8551.00
899.68	8945.00
900.11	8712.00
900.54	8481.00
900.98	8438.00
901.41	8440.00
901.85	8565.00
902.28	8491.00
902.71	8573.00
903.15	8804.00
903.58	9036.00
904.02	9053.00
904.45	9043.00
904.88	9015.00
905.32	8895.00
905.75	8819.00
906.18	8605.00
906.62	8788.00
907.05	8529.00
907.48	8553.00
907.92	8447.00
908.35	8523.00
908.79	8411.00
909.22	8273.00
909.65	8218.00
910.09	8244.00
910.52	8219.00
910.95	8159.00
911.38	8227.00
911.82	7930.00
912.25	8071.00
912.68	8275.00
913.12	8267.00
913.55	8252.00
913.98	8420.00
914.42	8597.00
914.85	8736.00
915.28	8331.00
915.72	8397.00
916.15	8171.00
916.58	8335.00
917.01	8117.00
917.45	7900.00
917.88	8114.00
918.31	8271.00
918.74	8434.00
919.18	8507.00
919.61	8469.00
920.04	8618.00
920.47	8699.00
920.91	8818.00
921.34	8761.00
921.77	8739.00
922.20	8906.00
922.64	8936.00
923.07	8844.00
923.50	8684.00
923.93	8504.00
924.37	8571.00
924.80	8371.00
925.23	8381.00
925.66	8174.00
926.09	7731.00
926.53	7780.00
926.96	7469.00
927.39	7401.00
927.82	7002.00
928.25	6834.00
928.69	6778.00
929.12	6655.00
929.55	6445.00
929.98	6302.00
930.41	6043.00
930.84	5971.00
931.28	5572.00
931.71	5412.00
932.14	5180.00
932.57	5114.00
933.00	4848.00
933.43	4805.00
933.86	4699.00
934.30	4591.00
934.73	4911.00
935.16	4755.00
935.59	4622.00
936.02	4727.00
936.45	4704.00
936.88	4593.00
937.31	4887.00
937.75	4974.00
938.18	5053.00
938.61	5284.00
939.04	5272.00
939.47	5332.00
939.90	5120.00
940.33	5094.00
940.76	4816.00
941.19	4722.00
941.62	4653.00
942.05	4611.00
942.48	4445.00
942.91	4394.00
943.35	4553.00
943.78	4465.00
944.21	4386.00
944.64	4536.00
945.07	4570.00
945.50	4579.00
945.93	4638.00
946.36	4795.00
946.79	4753.00
947.22	4923.00
947.65	4847.00
948.08	4666.00
948.51	4880.00
948.94	4938.00
949.37	4875.00
949.80	4772.00
950.23	4745.00
950.66	4858.00
951.09	4893.00
951.52	4705.00
951.95	4813.00
952.38	4881.00
952.81	5056.00
953.24	5108.00
953.67	5169.00
954.10	5080.00
954.53	5254.00
954.96	5189.00
955.39	5363.00
955.82	5403.00
956.25	5312.00
956.68	5565.00
957.11	5457.00
957.53	5375.00
957.96	5351.00
958.39	5213.00
958.82	5082.00
959.25	5221.00
959.68	5278.00
960.11	5374.00
960.54	5512.00
960.97	5620.00
961.40	5759.00
961.83	5705.00
962.26	5711.00
962.68	6049.00
963.11	6077.00
963.54	6100.00
963.97	6088.00
964.40	6155.00
964.83	6289.00
965.26	6237.00
965.69	6194.00
966.11	6165.00
966.54	6111.00
966.97	6349.00
967.40	6397.00
967.83	6573.00
968.26	6465.00
968.69	6345.00
969.11	6492.00
969.54	6375.00
969.97	6436.00
970.40	6586.00
970.83	6515.00
971.26	6578.00
971.68	6495.00
972.11	6565.00
972.54	6708.00
972.97	6603.00
973.40	6587.00
973.82	6657.00
974.25	6535.00
974.68	6396.00
975.11	6438.00
975.54	6391.00
975.96	6337.00
976.39	6313.00
976.82	6290.00
977.25	6279.00
977.67	6316.00
978.10	6293.00
978.53	6415.00
978.96	6487.00
979.38	6569.00
979.81	6580.00
980.24	6807.00
980.67	6901.00
981.09	6871.00
981.52	6965.00
981.95	6849.00
982.38	6959.00
982.80	7005.00
983.23	7156.00
983.66	7072.00
984.08	7012.00
984.51	6821.00
984.94	6941.00
985.37	6847.00
985.79	6721.00
986.22	6711.00
986.65	6649.00
987.07	6629.00
987.50	6646.00
987.93	6566.00
988.35	6638.00
988.78	6645.00
989.21	6733.00
989.63	6767.00
990.06	6855.00
990.49	6963.00
990.91	7056.00
991.34	6999.00
991.77	7001.00
992.19	7024.00
992.62	6967.00
993.05	6991.00
993.47	7033.00
993.90	6879.00
994.32	6824.00
994.75	6825.00
995.18	6635.00
995.60	6631.00
996.03	6512.00
996.45	6582.00
996.88	6566.00
997.31	6491.00
997.73	6517.00
998.16	6469.00
998.58	6564.00
999.01	6581.00
999.44	6688.00
999.86	6691.00
1000.29	6643.00
1000.71	6720.00
1001.14	6749.00
1001.56	6745.00
1001.99	6686.00
1002.41	6579.00
1002.84	6554.00
1003.27	6469.00
1003.69	6366.00
1004.12	6332.00
1004.54	6291.00
1004.97	6247.00
1005.39	6097.00
1005.82	6197.00
1006.24	6073.00
1006.67	6100.00
1007.09	6061.00
1007.52	6144.00
1007.94	6061.00
1008.37	6226.00
1008.79	6185.00
1009.22	6245.00
1009.64	6175.00
1010.07	6154.00
1010.49	6165.00
1010.92	6221.00
1011.34	6222.00
1011.77	6207.00
1012.19	6239.00
1012.62	6229.00
1013.04	6087.00
1013.46	6134.00
1013.89	5943.00
1014.31	5931.00
1014.74	5836.00
1015.16	5824.00
1015.59	5743.00
1016.01	5763.00
1016.44	5795.00
1016.86	6610.00
1017.28	5838.00
1017.71	5800.00
1018.13	6031.00
1018.56	5969.00
1018.98	5987.00
1019.40	6084.00
1019.83	6060.00
1020.25	6012.00
1020.68	6054.00
1021.10	6101.00
1021.52	6114.00
1021.95	6262.00
1022.37	6217.00
1022.79	6175.00
1023.22	6109.00
1023.64	6049.00
1024.07	6033.00
1024.49	5997.00
1024.91	5905.00
1025.34	5820.00
1025.76	5951.00
1026.18	5830.00
1026.61	5791.00
1027.03	5823.00
1027.45	5831.00
1027.88	5749.00
1028.30	5985.00
1028.72	5922.00
1029.15	5844.00
1029.57	5886.00
1029.99	5922.00
1030.41	5806.00
1030.84	5913.00
1031.26	5878.00
1031.68	5810.00
1032.11	5883.00
1032.53	5720.00
1032.95	5679.00
1033.37	5691.00
1033.80	5706.00
1034.22	5595.00
1034.64	5627.00
1035.06	5477.00
1035.49	5502.00
1035.91	5498.00
1036.33	5335.00
1036.75	5413.00
1037.18	5430.00
1037.60	5423.00
1038.02	5488.00
1038.44	5395.00
1038.87	5364.00
1039.29	5398.00
1039.71	5435.00
1040.13	5290.00
1040.55	5427.00
1040.98	5437.00
1041.40	5415.00
1041.82	5364.00
1042.24	5313.00
1042.66	5393.00
1043.09	5200.00
1043.51	5204.00
1043.93	5151.00
1044.35	5081.00
1044.77	5107.00
1045.20	5144.00
1045.62	4955.00
1046.04	5003.00
1046.46	5046.00
1046.88	4929.00
1047.30	4973.00
1047.72	4953.00
1048.15	4938.00
1048.57	4935.00
1048.99	4880.00
1049.41	4947.00
1049.83	4888.00
1050.25	4961.00
1050.67	4888.00
1051.09	4869.00
1051.52	4890.00
1051.94	4799.00
1052.36	4871.00
1052.78	4759.00
1053.20	4759.00
1053.62	4781.00
1054.04	4751.00
1054.46	4761.00
1054.88	4857.00
1055.30	4773.00
1055.72	4736.00
1056.14	4668.00
1056.57	4805.00
1056.99	4579.00
1057.41	4622.00
1057.83	4551.00
1058.25	4514.00
1058.67	4506.00
1059.09	4511.00
1059.51	4509.00
1059.93	4464.00
1060.35	4406.00
1060.77	4482.00
1061.19	4469.00
1061.61	4402.00
1062.03	4410.00
1062.45	4360.00
1062.87	4451.00
1063.29	4389.00
1063.71	4381.00
1064.13	4313.00
1064.55	4322.00
1064.97	4389.00
1065.39	4373.00
1065.81	4369.00
1066.23	4296.00
1066.65	4276.00
1067.07	4332.00
1067.49	4252.00
1067.91	4197.00
1068.33	4201.00
1068.75	4273.00
1069.17	4264.00
1069.59	4199.00
1070.00	4177.00
1070.42	4179.00
1070.84	4103.00
1071.26	4070.00
1071.68	4130.00
1072.10	4138.00
1072.52	4113.00
1072.94	4107.00
1073.36	4099.00
1073.78	4073.00
1074.20	4082.00
1074.62	4031.00
1075.03	4028.00
1075.45	4097.00
1075.87	4115.00
1076.29	3996.00
1076.71	4077.00
1077.13	4093.00
1077.55	3979.00
1077.97	4097.00
1078.38	4044.00
1078.80	3965.00
1079.22	4028.00
1079.64	3951.00
1080.06	3912.00
1080.48	3955.00
1080.89	3931.00
1081.31	3907.00
1081.73	3879.00
1082.15	3904.00
1082.57	3945.00
1082.99	3890.00
1083.40	3805.00
1083.82	3953.00
1084.24	3843.00
1084.66	3808.00
1085.08	3847.00
1085.49	3761.00
1085.91	3832.00
1086.33	5068.00
1086.75	3859.00
1087.17	3836.00
1087.58	3805.00
1088.00	3807.00
1088.42	3837.00
1088.84	3769.00
1089.25	3769.00
1089.67	3788.00
1090.09	3751.00
1090.51	3709.00
1090.92	3787.00
1091.34	3733.00
1091.76	3723.00
1092.18	3682.00
1092.59	3667.00
1093.01	3647.00
1093.43	3663.00
1093.84	3622.00
1094.26	3689.00
1094.68	3643.00
1095.10	3591.00
1095.51	3602.00
1095.93	3616.00
1096.35	3655.00
1096.76	3677.00
1097.18	3676.00
1097.60	3564.00
1098.01	3589.00
1098.43	3571.00
1098.85	3575.00
1099.26	3542.00
1099.68	3575.00
1100.10	3513.00
1100.51	3532.00
1100.93	3489.00
1101.35	3541.00
1101.76	3522.00
1102.18	4013.00
1102.60	3548.00
1103.01	3425.00
1103.43	3530.00
1103.84	3470.00
1104.26	3433.00
1104.68	3495.00
1105.09	3391.00
1105.51	3417.00
1105.92	3485.00
1106.34	3421.00
1106.76	3468.00
1107.17	3445.00
1107.59	3427.00
1108.00	3349.00
1108.42	3373.00
1108.83	3337.00
1109.25	3389.00
1109.67	3341.00
1110.08	3347.00
1110.50	3329.00
1110.91	3344.00
1111.33	3308.00
1111.74	3294.00
1112.16	3371.00
1112.57	3345.00
1112.99	3297.00
1113.41	3318.00
1113.82	3266.00
1114.24	3310.00
1114.65	3276.00
1115.07	3198.00
1115.48	3103.00
1115.90	2187.00
1116.31	2207.00
1116.73	2212.00
1117.14	2218.00
>>>>>End Processed Spectral Data<<<<<
