SpectraSuite Data File
++++++++++++++++++++++++++++++++++++
Date: Tue May 29 13:19:46 EEST 2018
User: CanSEE
Dark Spectrum Present: No
Reference Spectrum Present: No
Number of Sampled Component Spectra: 1
Spectrometers: MAYP11278
Integration Time (usec): 220000 (MAYP11278)
Spectra Averaged: 1 (MAYP11278)
Boxcar Smoothing: 0 (MAYP11278)
Correct for Electrical Dark: No (MAYP11278)
Strobe/Lamp Enabled: No (MAYP11278)
Correct for Detector Non-linearity: No (MAYP11278)
Correct for Stray Light: No (MAYP11278)
Number of Pixels in Processed Spectrum: 2068
>>>>>Begin Processed Spectral Data<<<<<
187.82	2358.00
188.30	2237.00
188.78	2216.00
189.26	2219.00
189.73	3473.00
190.21	3602.00
190.69	3716.00
191.17	3710.00
191.64	3788.00
192.12	3718.00
192.60	3698.00
193.07	3688.00
193.55	3708.00
194.03	3716.00
194.51	3738.00
194.98	3696.00
195.46	3756.00
195.94	3676.00
196.42	3712.00
196.89	3872.00
197.37	3708.00
197.85	3656.00
198.32	3708.00
198.80	3706.00
199.28	3761.00
199.76	3792.00
200.23	3700.00
200.71	3730.00
201.19	3758.00
201.66	3718.00
202.14	3733.00
202.62	3664.00
203.09	3708.00
203.57	3672.00
204.05	3760.00
204.53	3795.00
205.00	3678.00
205.48	3700.00
205.96	3779.00
206.43	3690.00
206.91	3722.00
207.39	3874.00
207.86	3736.00
208.34	3777.00
208.82	3726.00
209.29	3759.00
209.77	3736.00
210.25	3698.00
210.72	3741.00
211.20	3746.00
211.68	3734.00
212.15	3730.00
212.63	3792.00
213.11	3754.00
213.58	3694.00
214.06	3826.00
214.53	3714.00
215.01	3777.00
215.49	3750.00
215.96	3740.00
216.44	3774.00
216.92	3731.00
217.39	3700.00
217.87	3766.00
218.35	3814.00
218.82	3678.00
219.30	3688.00
219.77	3694.00
220.25	3704.00
220.73	3830.00
221.20	3696.00
221.68	3786.00
222.15	3706.00
222.63	3794.00
223.11	3688.00
223.58	3806.00
224.06	3757.00
224.53	3720.00
225.01	3694.00
225.49	3700.00
225.96	3715.00
226.44	3749.00
226.91	3784.00
227.39	3741.00
227.87	3752.00
228.34	3790.00
228.82	3746.00
229.29	3766.00
229.77	3730.00
230.24	3710.00
230.72	3739.00
231.20	3806.00
231.67	3739.00
232.15	3721.00
232.62	3682.00
233.10	3722.00
233.57	3762.00
234.05	3916.00
234.53	3752.00
235.00	3682.00
235.48	3747.00
235.95	3742.00
236.43	3777.00
236.90	3876.00
237.38	3690.00
237.85	3787.00
238.33	3749.00
238.80	3776.00
239.28	3765.00
239.75	3670.00
240.23	3773.00
240.71	3791.00
241.18	3769.00
241.66	3720.00
242.13	3794.00
242.61	3800.00
243.08	3719.00
243.56	3690.00
244.03	3776.00
244.51	3832.00
244.98	3770.00
245.46	3774.00
245.93	5688.00
246.41	3648.00
246.88	3731.00
247.36	3764.00
247.83	3775.00
248.31	3772.00
248.78	3680.00
249.26	3766.00
249.73	3789.00
250.21	3778.00
250.68	3840.00
251.16	3735.00
251.63	3876.00
252.10	3818.00
252.58	3686.00
253.05	3806.00
253.53	3740.00
254.00	3750.00
254.48	3776.00
254.95	3722.00
255.43	3789.00
255.90	3764.00
256.38	3771.00
256.85	3782.00
257.33	3779.00
257.80	3905.00
258.27	3753.00
258.75	3722.00
259.22	3785.00
259.70	3755.00
260.17	3837.00
260.65	3743.00
261.12	3726.00
261.59	3836.00
262.07	3741.00
262.54	3762.00
263.02	3726.00
263.49	3690.00
263.97	3805.00
264.44	3832.00
264.91	3737.00
265.39	3805.00
265.86	3790.00
266.34	3828.00
266.81	3782.00
267.28	3747.00
267.76	3785.00
268.23	3757.00
268.71	3686.00
269.18	3694.00
269.65	3684.00
270.13	3754.00
270.60	3783.00
271.08	3771.00
271.55	3796.00
272.02	3692.00
272.50	3662.00
272.97	3702.00
273.44	3738.00
273.92	3944.00
274.39	3757.00
274.87	3762.00
275.34	3700.00
275.81	3746.00
276.29	3749.00
276.76	3750.00
277.23	3582.00
277.71	3710.00
278.18	3596.00
278.65	3871.00
279.13	3660.00
279.60	3739.00
280.07	4018.00
280.55	3998.00
281.02	4049.00
281.50	3805.00
281.97	3916.00
282.44	3843.00
282.91	3780.00
283.39	3831.00
283.86	3756.00
284.33	3724.00
284.81	3820.00
285.28	3808.00
285.75	3778.00
286.23	3776.00
286.70	3741.00
287.17	3806.00
287.65	3865.00
288.12	3731.00
288.59	3762.00
289.07	3745.00
289.54	3818.00
290.01	3724.00
290.48	3786.00
290.96	3757.00
291.43	3803.00
291.90	3864.00
292.38	3737.00
292.85	3849.00
293.32	3728.00
293.79	3791.00
294.27	3782.00
294.74	3804.00
295.21	3799.00
295.69	3816.00
296.16	3881.00
296.63	3888.00
297.10	3809.00
297.58	3838.00
298.05	3828.00
298.52	3780.00
298.99	3858.00
299.47	3722.00
299.94	3836.00
300.41	3748.00
300.88	3869.00
301.36	3836.00
301.83	3848.00
302.30	3734.00
302.77	3814.00
303.25	3855.00
303.72	3753.00
304.19	3794.00
304.66	3757.00
305.13	3786.00
305.61	3794.00
306.08	3784.00
306.55	3798.00
307.02	3758.00
307.49	3746.00
307.97	3778.00
308.44	3758.00
308.91	3796.00
309.38	3820.00
309.86	3794.00
310.33	3799.00
310.80	3794.00
311.27	3780.00
311.74	3816.00
312.21	3792.00
312.69	3916.00
313.16	3730.00
313.63	3812.00
314.10	3810.00
314.57	3788.00
315.05	3764.00
315.52	3886.00
315.99	3814.00
316.46	3798.00
316.93	3852.00
317.40	3844.00
317.88	3956.00
318.35	3846.00
318.82	3800.00
319.29	3746.00
319.76	3806.00
320.23	3870.00
320.70	3862.00
321.18	3811.00
321.65	3722.00
322.12	3800.00
322.59	3926.00
323.06	3770.00
323.53	3944.00
324.00	3771.00
324.48	3859.00
324.95	3817.00
325.42	3782.00
325.89	3749.00
326.36	3805.00
326.83	3852.00
327.30	3855.00
327.77	3858.00
328.24	3832.00
328.72	3789.00
329.19	3802.00
329.66	3793.00
330.13	3766.00
330.60	3891.00
331.07	3816.00
331.54	3894.00
332.01	3761.00
332.48	3926.00
332.95	3846.00
333.43	3840.00
333.90	3898.00
334.37	3840.00
334.84	3838.00
335.31	3981.00
335.78	3804.00
336.25	3795.00
336.72	3812.00
337.19	3840.00
337.66	3793.00
338.13	3814.00
338.60	3848.00
339.07	3832.00
339.54	3710.00
340.01	3725.00
340.49	3776.00
340.96	3828.00
341.43	3835.00
341.90	3774.00
342.37	3763.00
342.84	3820.00
343.31	3785.00
343.78	3776.00
344.25	3782.00
344.72	3713.00
345.19	3778.00
345.66	3836.00
346.13	3745.00
346.60	3777.00
347.07	3846.00
347.54	3759.00
348.01	3858.00
348.48	3786.00
348.95	3781.00
349.42	3812.00
349.89	3855.00
350.36	3784.00
350.83	3755.00
351.30	3793.00
351.77	3902.00
352.24	3853.00
352.71	3790.00
353.18	3806.00
353.65	3842.00
354.12	3818.00
354.59	3844.00
355.06	3858.00
355.53	3873.00
356.00	3742.00
356.47	3876.00
356.94	3763.00
357.41	3966.00
357.88	3822.00
358.35	3750.00
358.82	3798.00
359.28	3764.00
359.75	3778.00
360.22	3826.00
360.69	3898.00
361.16	3782.00
361.63	3796.00
362.10	3850.00
362.57	3787.00
363.04	3826.00
363.51	3932.00
363.98	3839.00
364.45	3758.00
364.92	3834.00
365.39	3777.00
365.86	3763.00
366.32	3795.00
366.79	3807.00
367.26	4676.00
367.73	4180.00
368.20	3718.00
368.67	3876.00
369.14	3759.00
369.61	3836.00
370.08	3812.00
370.55	3812.00
371.02	4542.00
371.48	3821.00
371.95	3808.00
372.42	3746.00
372.89	3800.00
373.36	3843.00
373.83	3714.00
374.30	3736.00
374.77	3824.00
375.23	3772.00
375.70	3900.00
376.17	3766.00
376.64	3794.00
377.11	3793.00
377.58	3841.00
378.05	3841.00
378.51	3818.00
378.98	3794.00
379.45	3777.00
379.92	3819.00
380.39	3944.00
380.86	3781.00
381.33	3910.00
381.79	3908.00
382.26	3736.00
382.73	3853.00
383.20	3790.00
383.67	3844.00
384.14	3803.00
384.60	4066.00
385.07	3797.00
385.54	3822.00
386.01	3782.00
386.48	3914.00
386.94	3779.00
387.41	3741.00
387.88	3896.00
388.35	3846.00
388.82	3873.00
389.28	3795.00
389.75	3840.00
390.22	3838.00
390.69	3820.00
391.16	3816.00
391.62	3798.00
392.09	3833.00
392.56	3820.00
393.03	3806.00
393.50	3922.00
393.96	3820.00
394.43	3864.00
394.90	3771.00
395.37	3867.00
395.83	4056.00
396.30	3749.00
396.77	3849.00
397.24	3826.00
397.70	3791.00
398.17	3854.00
398.64	3765.00
399.11	3774.00
399.57	3817.00
400.04	3753.00
400.51	3794.00
400.98	3767.00
401.44	3842.00
401.91	3820.00
402.38	3812.00
402.84	3756.00
403.31	3896.00
403.78	3826.00
404.25	3878.00
404.71	3890.00
405.18	3896.00
405.65	3784.00
406.12	3885.00
406.58	3857.00
407.05	3930.00
407.52	3808.00
407.98	4134.00
408.45	3818.00
408.92	3774.00
409.38	3838.00
409.85	3761.00
410.32	3890.00
410.78	3769.00
411.25	3862.00
411.72	3806.00
412.18	3727.00
412.65	3805.00
413.12	3790.00
413.59	3878.00
414.05	3814.00
414.52	3865.00
414.98	3809.00
415.45	3878.00
415.92	3844.00
416.38	3824.00
416.85	3922.00
417.32	3788.00
417.78	3816.00
418.25	3826.00
418.72	3775.00
419.18	3848.00
419.65	3747.00
420.12	3857.00
420.58	3690.00
421.05	3812.00
421.51	3803.00
421.98	3812.00
422.45	3753.00
422.91	3802.00
423.38	3849.00
423.85	3848.00
424.31	3828.00
424.78	3830.00
425.24	3824.00
425.71	3871.00
426.18	3764.00
426.64	3882.00
427.11	3818.00
427.57	3830.00
428.04	3762.00
428.51	3834.00
428.97	3802.00
429.44	3826.00
429.90	3787.00
430.37	3948.00
430.83	3790.00
431.30	3797.00
431.77	3844.00
432.23	3896.00
432.70	3812.00
433.16	3800.00
433.63	3834.00
434.09	3802.00
434.56	3884.00
435.03	3774.00
435.49	3818.00
435.96	3832.00
436.42	3786.00
436.89	3838.00
437.35	3829.00
437.82	3820.00
438.28	3800.00
438.75	3840.00
439.21	4002.00
439.68	3863.00
440.14	3857.00
440.61	3908.00
441.07	3762.00
441.54	3824.00
442.00	3940.00
442.47	3735.00
442.94	3871.00
443.40	3858.00
443.87	3764.00
444.33	3896.00
444.80	3834.00
445.26	3782.00
445.73	3793.00
446.19	3838.00
446.65	3835.00
447.12	3850.00
447.58	3784.00
448.05	3816.00
448.51	3809.00
448.98	3840.00
449.44	3761.00
449.91	3764.00
450.37	3750.00
450.84	3804.00
451.30	3793.00
451.77	3849.00
452.23	3763.00
452.70	3896.00
453.16	3805.00
453.62	3792.00
454.09	3768.00
454.55	3812.00
455.02	3773.00
455.48	3764.00
455.95	3834.00
456.41	3767.00
456.88	3874.00
457.34	3794.00
457.80	3762.00
458.27	3688.00
458.73	3757.00
459.20	3833.00
459.66	3791.00
460.13	3710.00
460.59	3720.00
461.05	3823.00
461.52	3784.00
461.98	3672.00
462.45	3682.00
462.91	3784.00
463.37	3682.00
463.84	3752.00
464.30	3708.00
464.76	3632.00
465.23	3690.00
465.69	3755.00
466.16	3700.00
466.62	3700.00
467.08	3715.00
467.55	3700.00
468.01	3678.00
468.48	3698.00
468.94	3719.00
469.40	3618.00
469.87	3678.00
470.33	3644.00
470.79	3650.00
471.26	3657.00
471.72	3606.00
472.18	3622.00
472.65	3626.00
473.11	3716.00
473.57	3656.00
474.04	3600.00
474.50	3638.00
474.96	3542.00
475.43	3698.00
475.89	3656.00
476.35	3648.00
476.82	3634.00
477.28	3638.00
477.74	3690.00
478.21	3622.00
478.67	3729.00
479.13	3590.00
479.59	3726.00
480.06	3680.00
480.52	3660.00
480.98	3614.00
481.45	3598.00
481.91	3620.00
482.37	3553.00
482.84	3568.00
483.30	3563.00
483.76	3600.00
484.22	3713.00
484.69	3626.00
485.15	3610.00
485.61	3540.00
486.07	3630.00
486.54	3546.00
487.00	3630.00
487.46	3558.00
487.92	3559.00
488.39	3617.00
488.85	3642.00
489.31	3641.00
489.77	3676.00
490.24	3517.00
490.70	3648.00
491.16	3523.00
491.62	3567.00
492.09	3537.00
492.55	3634.00
493.01	3656.00
493.47	3636.00
493.94	3610.00
494.40	3601.00
494.86	3596.00
495.32	3550.00
495.78	3656.00
496.25	3640.00
496.71	3613.00
497.17	3747.00
497.63	3678.00
498.09	3574.00
498.56	3630.00
499.02	3640.00
499.48	3803.00
499.94	3656.00
500.40	3615.00
500.87	3662.00
501.33	3614.00
501.79	3688.00
502.25	3672.00
502.71	3982.00
503.17	3668.00
503.64	3724.00
504.10	3658.00
504.56	3724.00
505.02	3716.00
505.48	3715.00
505.94	3774.00
506.40	3755.00
506.87	3748.00
507.33	3764.00
507.79	3788.00
508.25	3762.00
508.71	3770.00
509.17	3726.00
509.63	3798.00
510.10	3822.00
510.56	3795.00
511.02	3956.00
511.48	3982.00
511.94	3844.00
512.40	3846.00
512.86	3899.00
513.32	3993.00
513.78	3886.00
514.25	4074.00
514.71	4724.00
515.17	3987.00
515.63	4062.00
516.09	4114.00
516.55	4090.00
517.01	4219.00
517.47	4148.00
517.93	4198.00
518.39	4360.00
518.85	4277.00
519.32	4298.00
519.78	4352.00
520.24	4328.00
520.70	4422.00
521.16	4510.00
521.62	4598.00
522.08	4527.00
522.54	4606.00
523.00	4781.00
523.46	4790.00
523.92	4764.00
524.38	4964.00
524.84	4852.00
525.30	4930.00
525.76	4954.00
526.22	4852.00
526.68	4844.00
527.14	4956.00
527.60	5068.00
528.06	5168.00
528.52	5269.00
528.98	5249.00
529.44	5228.00
529.90	5346.00
530.36	5360.00
530.82	5370.00
531.28	5422.00
531.74	5362.00
532.20	5368.00
532.66	5436.00
533.12	5496.00
533.58	5484.00
534.04	5450.00
534.50	5516.00
534.96	5595.00
535.42	5678.00
535.88	5594.00
536.34	5642.00
536.80	5587.00
537.26	5672.00
537.72	5710.00
538.18	5683.00
538.64	5817.00
539.10	5761.00
539.56	5962.00
540.02	5553.00
540.48	5732.00
540.94	5662.00
541.40	5688.00
541.86	5821.00
542.32	5842.00
542.78	5748.00
543.24	5897.00
543.69	5771.00
544.15	5978.00
544.61	5871.00
545.07	5818.00
545.53	5819.00
545.99	6018.00
546.45	5922.00
546.91	5935.00
547.37	5917.00
547.83	5867.00
548.29	5976.00
548.74	5954.00
549.20	5958.00
549.66	6132.00
550.12	6010.00
550.58	5903.00
551.04	6019.00
551.50	6024.00
551.96	6138.00
552.42	6028.00
552.87	5986.00
553.33	6092.00
553.79	6054.00
554.25	5964.00
554.71	6114.00
555.17	6050.00
555.63	6104.00
556.08	6018.00
556.54	6021.00
557.00	5861.00
557.46	5925.00
557.92	6010.00
558.38	5866.00
558.83	5775.00
559.29	5803.00
559.75	5808.00
560.21	5816.00
560.67	5799.00
561.13	5809.00
561.58	5712.00
562.04	5756.00
562.50	5708.00
562.96	5782.00
563.42	5716.00
563.87	5558.00
564.33	5623.00
564.79	5604.00
565.25	5578.00
565.71	5420.00
566.16	5539.00
566.62	5474.00
567.08	5447.00
567.54	5448.00
568.00	5400.00
568.45	5346.00
568.91	5328.00
569.37	5294.00
569.83	5267.00
570.28	5190.00
570.74	5134.00
571.20	5122.00
571.66	5096.00
572.11	5138.00
572.57	5142.00
573.03	5016.00
573.49	5000.00
573.94	5016.00
574.40	5013.00
574.86	4960.00
575.32	4876.00
575.77	4918.00
576.23	4784.00
576.69	4922.00
577.15	4822.00
577.60	4847.00
578.06	4730.00
578.52	4832.00
578.97	4728.00
579.43	4694.00
579.89	4752.00
580.34	4730.00
580.80	4710.00
581.26	4682.00
581.72	4698.00
582.17	4692.00
582.63	4616.00
583.09	4640.00
583.54	4662.00
584.00	4650.00
584.46	4652.00
584.91	4566.00
585.37	4700.00
585.83	4558.00
586.28	4534.00
586.74	4544.00
587.20	4563.00
587.65	4626.00
588.11	4464.00
588.57	4526.00
589.02	4420.00
589.48	4392.00
589.94	4424.00
590.39	4490.00
590.85	4468.00
591.30	4424.00
591.76	4488.00
592.22	4406.00
592.67	4520.00
593.13	4422.00
593.59	4533.00
594.04	4426.00
594.50	4448.00
594.95	4438.00
595.41	4396.00
595.87	4398.00
596.32	4442.00
596.78	4466.00
597.23	4458.00
597.69	4380.00
598.15	4372.00
598.60	4422.00
599.06	4458.00
599.51	4412.00
599.97	4392.00
600.43	4428.00
600.88	4426.00
601.34	4406.00
601.79	4328.00
602.25	4502.00
602.70	4364.00
603.16	4368.00
603.61	4332.00
604.07	4307.00
604.53	4422.00
604.98	4366.00
605.44	4378.00
605.89	4369.00
606.35	4309.00
606.80	4356.00
607.26	4314.00
607.71	4283.00
608.17	4282.00
608.62	4298.00
609.08	4418.00
609.53	4288.00
609.99	4214.00
610.44	4261.00
610.90	4266.00
611.35	4188.00
611.81	4340.00
612.26	4226.00
612.72	4244.00
613.17	4320.00
613.63	4132.00
614.08	4106.00
614.54	4084.00
614.99	4110.00
615.45	4132.00
615.90	4138.00
616.36	4061.00
616.81	4091.00
617.27	4132.00
617.72	4096.00
618.18	4096.00
618.63	4074.00
619.09	4084.00
619.54	4080.00
619.99	4112.00
620.45	4130.00
620.90	4148.00
621.36	4049.00
621.81	4102.00
622.27	4162.00
622.72	4142.00
623.18	4020.00
623.63	4040.00
624.08	4090.00
624.54	3964.00
624.99	3990.00
625.45	4020.00
625.90	4001.00
626.35	4036.00
626.81	4027.00
627.26	3997.00
627.72	4024.00
628.17	4047.00
628.62	3985.00
629.08	4027.00
629.53	4042.00
629.99	3942.00
630.44	4050.00
630.89	4026.00
631.35	4064.00
631.80	4062.00
632.26	4065.00
632.71	4012.00
633.16	3999.00
633.62	4032.00
634.07	4032.00
634.52	3964.00
634.98	4023.00
635.43	4020.00
635.88	3932.00
636.34	3998.00
636.79	3988.00
637.24	3948.00
637.70	4034.00
638.15	4014.00
638.60	3886.00
639.06	3948.00
639.51	3880.00
639.96	3869.00
640.42	3898.00
640.87	3994.00
641.32	3828.00
641.78	3869.00
642.23	3875.00
642.68	3842.00
643.14	3912.00
643.59	3902.00
644.04	3821.00
644.49	3780.00
644.95	3820.00
645.40	3764.00
645.85	3814.00
646.31	3792.00
646.76	3803.00
647.21	3813.00
647.66	3774.00
648.12	3803.00
648.57	3744.00
649.02	3858.00
649.47	3781.00
649.93	3979.00
650.38	3747.00
650.83	3734.00
651.28	3719.00
651.74	3770.00
652.19	3736.00
652.64	3734.00
653.09	3730.00
653.55	3686.00
654.00	3700.00
654.45	3722.00
654.90	3739.00
655.35	3670.00
655.81	3751.00
656.26	3638.00
656.71	3718.00
657.16	3744.00
657.62	3730.00
658.07	3721.00
658.52	3700.00
658.97	3708.00
659.42	3928.00
659.88	3640.00
660.33	3720.00
660.78	3706.00
661.23	3618.00
661.68	3668.00
662.13	3670.00
662.59	3590.00
663.04	3684.00
663.49	3632.00
663.94	3666.00
664.39	3642.00
664.84	3558.00
665.30	3668.00
665.75	3590.00
666.20	3688.00
666.65	3648.00
667.10	3774.00
667.55	3719.00
668.00	3576.00
668.46	3668.00
668.91	3618.00
669.36	3758.00
669.81	3541.00
670.26	3636.00
670.71	3666.00
671.16	3595.00
671.61	3706.00
672.06	3729.00
672.52	3620.00
672.97	3626.00
673.42	3730.00
673.87	3814.00
674.32	3615.00
674.77	3678.00
675.22	3549.00
675.67	3558.00
676.12	3636.00
676.57	3578.00
677.02	3626.00
677.47	3596.00
677.93	3757.00
678.38	3622.00
678.83	3630.00
679.28	3656.00
679.73	3584.00
680.18	3624.00
680.63	3626.00
681.08	3580.00
681.53	3550.00
681.98	3616.00
682.43	3692.00
682.88	3690.00
683.33	3669.00
683.78	3636.00
684.23	3716.00
684.68	3674.00
685.13	3668.00
685.58	3686.00
686.03	3660.00
686.48	3608.00
686.93	3729.00
687.38	3680.00
687.83	3732.00
688.28	3690.00
688.73	3922.00
689.18	3826.00
689.63	3713.00
690.08	3804.00
690.53	3867.00
690.98	3847.00
691.43	3908.00
691.88	3942.00
692.33	4062.00
692.78	4064.00
693.23	4202.00
693.68	4267.00
694.13	4238.00
694.58	4334.00
695.03	4680.00
695.48	4551.00
695.93	4672.00
696.38	4890.00
696.83	4889.00
697.28	5076.00
697.72	5168.00
698.17	5265.00
698.62	5470.00
699.07	5668.00
699.52	5718.00
699.97	5884.00
700.42	6080.00
700.87	6274.00
701.32	6526.00
701.77	6474.00
702.22	6796.00
702.67	6856.00
703.11	7151.00
703.56	7394.00
704.01	7629.00
704.46	7864.00
704.91	8128.00
705.36	8216.00
705.81	8486.00
706.26	8592.00
706.70	8822.00
707.15	8996.00
707.60	9203.00
708.05	9550.00
708.50	9690.00
708.95	9884.00
709.40	10168.00
709.84	10328.00
710.29	10562.00
710.74	10822.00
711.19	10985.00
711.64	11260.00
712.09	11468.00
712.53	11614.00
712.98	12126.00
713.43	12272.00
713.88	12542.00
714.33	12702.00
714.78	12784.00
715.22	12839.00
715.67	13260.00
716.12	13071.00
716.57	12734.00
717.02	12608.00
717.46	12566.00
717.91	12592.00
718.36	12562.00
718.81	12530.00
719.26	12728.00
719.70	13122.00
720.15	13449.00
720.60	13979.00
721.05	15065.00
721.49	15700.00
721.94	15992.00
722.39	16025.00
722.84	15818.00
723.28	15492.00
723.73	15618.00
724.18	15716.00
724.63	16210.00
725.07	16262.00
725.52	16690.00
725.97	17084.00
726.42	17564.00
726.86	17694.00
727.31	17617.00
727.76	18060.00
728.21	18378.00
728.65	18442.00
729.10	18526.00
729.55	19108.00
729.99	19526.00
730.44	19782.00
730.89	20092.00
731.33	20786.00
731.78	21212.00
732.23	21730.00
732.68	22364.00
733.12	22630.00
733.57	23074.00
734.02	23604.00
734.46	23944.00
734.91	24077.00
735.36	24198.00
735.80	24658.00
736.25	24784.00
736.70	25202.00
737.14	25521.00
737.59	25807.00
738.04	25916.00
738.48	25732.00
738.93	26113.00
739.37	26466.00
739.82	26864.00
740.27	27026.00
740.71	26929.00
741.16	27118.00
741.61	27320.00
742.05	27355.00
742.50	27910.00
742.94	27936.00
743.39	28226.00
743.84	28293.00
744.28	28398.00
744.73	28520.00
745.18	28982.00
745.62	29266.00
746.07	29226.00
746.51	29260.00
746.96	29066.00
747.40	29354.00
747.85	29258.00
748.30	29222.00
748.74	29270.00
749.19	29176.00
749.63	29444.00
750.08	29540.00
750.52	29466.00
750.97	29356.00
751.42	29730.00
751.86	29666.00
752.31	29566.00
752.75	29584.00
753.20	29694.00
753.64	29504.00
754.09	29597.00
754.53	29892.00
754.98	29662.00
755.42	29935.00
755.87	29630.00
756.31	29702.00
756.76	29446.00
757.20	29354.00
757.65	29099.00
758.09	28726.00
758.54	27714.00
758.98	24664.00
759.43	19784.00
759.87	14465.00
760.32	11642.00
760.76	11702.00
761.21	14284.00
761.65	16618.00
762.10	17340.00
762.54	16346.00
762.99	15716.00
763.43	16186.00
763.88	17192.00
764.32	18488.00
764.77	20064.00
765.21	21440.00
765.66	22662.00
766.10	23816.00
766.54	25013.00
766.99	25862.00
767.43	26793.00
767.88	27420.00
768.32	27938.00
768.77	28266.00
769.21	28788.00
769.66	28946.00
770.10	29304.00
770.54	29578.00
770.99	29615.00
771.43	29589.00
771.88	29584.00
772.32	29584.00
772.76	29446.00
773.21	29426.00
773.65	29496.00
774.10	29185.00
774.54	29014.00
774.98	29352.00
775.43	29367.00
775.87	29742.00
776.31	30024.00
776.76	29892.00
777.20	29788.00
777.65	29538.00
778.09	29475.00
778.53	29138.00
778.98	29186.00
779.42	29124.00
779.86	29146.00
780.31	29202.00
780.75	29386.00
781.19	29428.00
781.64	29294.00
782.08	29534.00
782.52	29385.00
782.97	29310.00
783.41	28970.00
783.85	28666.00
784.30	28708.00
784.74	28466.00
785.18	28420.00
785.63	28408.00
786.07	28502.00
786.51	28611.00
786.95	28652.00
787.40	28418.00
787.84	28463.00
788.28	28142.00
788.73	28230.00
789.17	27817.00
789.61	27626.00
790.05	27262.00
790.50	27183.00
790.94	27126.00
791.38	27174.00
791.82	27182.00
792.27	27312.00
792.71	27504.00
793.15	27678.00
793.59	27459.00
794.04	27244.00
794.48	27130.00
794.92	26802.00
795.36	26728.00
795.81	26344.00
796.25	26468.00
796.69	26472.00
797.13	26976.00
797.57	27034.00
798.02	27156.00
798.46	27414.00
798.90	27182.00
799.34	26878.00
799.79	26655.00
800.23	26194.00
800.67	26096.00
801.11	26033.00
801.55	25818.00
801.99	25706.00
802.44	25912.00
802.88	26080.00
803.32	26258.00
803.76	26317.00
804.20	26361.00
804.64	26336.00
805.09	26423.00
805.53	26379.00
805.97	26262.00
806.41	26106.00
806.85	25650.00
807.29	25574.00
807.74	25338.00
808.18	25240.00
808.62	25282.00
809.06	25219.00
809.50	25374.00
809.94	25298.00
810.38	25288.00
810.82	25479.00
811.27	25295.00
811.71	24920.00
812.15	24444.00
812.59	23772.00
813.03	23352.00
813.47	22501.00
813.91	21897.00
814.35	21672.00
814.79	21488.00
815.23	21220.00
815.67	20920.00
816.12	21170.00
816.56	20872.00
817.00	21145.00
817.44	21510.00
817.88	21540.00
818.32	21174.00
818.76	21438.00
819.20	21206.00
819.64	21444.00
820.08	21578.00
820.52	22324.00
820.96	22404.00
821.40	21932.00
821.84	21338.00
822.28	20399.00
822.72	20308.00
823.16	20322.00
823.60	21412.00
824.04	22674.00
824.48	23054.00
824.92	22880.00
825.36	22804.00
825.80	22464.00
826.24	22338.00
826.68	22035.00
827.12	22046.00
827.56	21676.00
828.00	21566.00
828.44	21792.00
828.88	22222.00
829.32	22420.00
829.76	22438.00
830.20	22788.00
830.64	22440.00
831.08	22316.00
831.52	22106.00
831.96	21666.00
832.40	21460.00
832.84	21820.00
833.28	22026.00
833.72	22268.00
834.16	22675.00
834.60	23233.00
835.04	23404.00
835.48	23872.00
835.91	23682.00
836.35	23721.00
836.79	23398.00
837.23	23356.00
837.67	23001.00
838.11	22916.00
838.55	23132.00
838.99	22752.00
839.43	23234.00
839.87	23322.00
840.30	23542.00
840.74	23952.00
841.18	24042.00
841.62	24250.00
842.06	24300.00
842.50	24274.00
842.94	23949.00
843.38	23521.00
843.81	23300.00
844.25	22983.00
844.69	22738.00
845.13	22759.00
845.57	22928.00
846.01	23068.00
846.45	23140.00
846.88	23274.00
847.32	23734.00
847.76	24020.00
848.20	23988.00
848.64	23602.00
849.08	23427.00
849.51	23284.00
849.95	22870.00
850.39	22858.00
850.83	23211.00
851.27	22912.00
851.70	22725.00
852.14	22502.00
852.58	21963.00
853.02	21412.00
853.46	20793.00
853.89	20830.00
854.33	20730.00
854.77	21649.00
855.21	23044.00
855.65	23626.00
856.08	24075.00
856.52	23962.00
856.96	23874.00
857.40	23368.00
857.83	23122.00
858.27	22746.00
858.71	22324.00
859.15	22198.00
859.58	22294.00
860.02	22584.00
860.46	22945.00
860.89	23246.00
861.33	23355.00
861.77	23791.00
862.21	23878.00
862.64	24018.00
863.08	23752.00
863.52	23706.00
863.95	23263.00
864.39	22872.00
864.83	21838.00
865.27	20978.00
865.70	21005.00
866.14	20270.00
866.58	20704.00
867.01	21542.00
867.45	22330.00
867.89	22762.00
868.32	23106.00
868.76	23492.00
869.20	23492.00
869.63	23682.00
870.07	23290.00
870.51	22661.00
870.94	22465.00
871.38	21988.00
871.82	21405.00
872.25	21316.00
872.69	21242.00
873.13	21492.00
873.56	21488.00
874.00	21994.00
874.43	22356.00
874.87	22547.00
875.31	22860.00
875.74	22788.00
876.18	23150.00
876.61	23130.00
877.05	22804.00
877.49	22552.00
877.92	22249.00
878.36	21986.00
878.79	21614.00
879.23	21092.00
879.67	20838.00
880.10	20822.00
880.54	20846.00
880.97	20990.00
881.41	21600.00
881.84	22189.00
882.28	22530.00
882.72	22808.00
883.15	23158.00
883.59	23224.00
884.02	23281.00
884.46	22838.00
884.89	22673.00
885.33	22248.00
885.76	21666.00
886.20	21252.00
886.63	20888.00
887.07	20702.00
887.50	20834.00
887.94	20846.00
888.37	20958.00
888.81	21392.00
889.24	21496.00
889.68	21754.00
890.11	21951.00
890.55	22186.00
890.98	22352.00
891.42	22285.00
891.85	22244.00
892.29	22054.00
892.72	21294.00
893.16	20870.00
893.59	20386.00
894.03	19800.00
894.46	19214.00
894.90	18490.00
895.33	17832.00
895.77	17938.00
896.20	17732.00
896.63	17824.00
897.07	17840.00
897.50	17958.00
897.94	18078.00
898.37	18626.00
898.81	17355.00
899.24	17684.00
899.68	18400.00
900.11	17856.00
900.54	17668.00
900.98	17248.00
901.41	17234.00
901.85	17480.00
902.28	17396.00
902.71	17486.00
903.15	18046.00
903.58	18750.00
904.02	18596.00
904.45	18603.00
904.88	18424.00
905.32	18308.00
905.75	18179.00
906.18	17776.00
906.62	17918.00
907.05	17520.00
907.48	17578.00
907.92	17436.00
908.35	17376.00
908.79	17138.00
909.22	17112.00
909.65	16856.00
910.09	16779.00
910.52	16590.00
910.95	16744.00
911.38	16478.00
911.82	16060.00
912.25	16474.00
912.68	16829.00
913.12	16504.00
913.55	16688.00
913.98	17214.00
914.42	17966.00
914.85	17972.00
915.28	17186.00
915.72	17262.00
916.15	17028.00
916.58	17110.00
917.01	16515.00
917.45	16185.00
917.88	16490.00
918.31	16770.00
918.74	17254.00
919.18	17588.00
919.61	17506.00
920.04	17746.00
920.47	17906.00
920.91	18016.00
921.34	18022.00
921.77	18016.00
922.20	18404.00
922.64	18223.00
923.07	18134.00
923.50	18057.00
923.93	17915.00
924.37	17544.00
924.80	17380.00
925.23	17164.00
925.66	16618.00
926.09	15814.00
926.53	15537.00
926.96	14814.00
927.39	14386.00
927.82	13725.00
928.25	13208.00
928.69	13078.00
929.12	12822.00
929.55	12251.00
929.98	11852.00
930.41	11240.00
930.84	10765.00
931.28	10128.00
931.71	9357.00
932.14	8656.00
932.57	8442.00
933.00	8140.00
933.43	7905.00
933.86	7446.00
934.30	7352.00
934.73	8030.00
935.16	7500.00
935.59	7282.00
936.02	7562.00
936.45	7350.00
936.88	7468.00
937.31	8118.00
937.75	8246.00
938.18	8638.00
938.61	9086.00
939.04	9430.00
939.47	9068.00
939.90	8768.00
940.33	8478.00
940.76	7917.00
941.19	7688.00
941.62	7649.00
942.05	7408.00
942.48	6900.00
942.91	6966.00
943.35	7195.00
943.78	6814.00
944.21	6872.00
944.64	7297.00
945.07	7386.00
945.50	7230.00
945.93	7354.00
946.36	7724.00
946.79	7812.00
947.22	8136.00
947.65	7947.00
948.08	7774.00
948.51	8179.00
948.94	8282.00
949.37	8056.00
949.80	7748.00
950.23	7896.00
950.66	8204.00
951.09	8129.00
951.52	7803.00
951.95	7874.00
952.38	8085.00
952.81	8548.00
953.24	8846.00
953.67	8798.00
954.10	8822.00
954.53	9037.00
954.96	9020.00
955.39	9459.00
955.82	9814.00
956.25	9385.00
956.68	9762.00
957.11	9842.00
957.53	9418.00
957.96	9464.00
958.39	9310.00
958.82	8874.00
959.25	9288.00
959.68	9600.00
960.11	9652.00
960.54	9874.00
960.97	10246.00
961.40	10532.00
961.83	10442.00
962.26	10691.00
962.68	11427.00
963.11	11421.00
963.54	11502.00
963.97	11608.00
964.40	11624.00
964.83	11960.00
965.26	12056.00
965.69	11768.00
966.11	11772.00
966.54	11866.00
966.97	12264.00
967.40	12308.00
967.83	12514.00
968.26	12536.00
968.69	12466.00
969.11	12526.00
969.54	12356.00
969.97	12504.00
970.40	12747.00
970.83	12628.00
971.26	12796.00
971.68	12824.00
972.11	12808.00
972.54	13130.00
972.97	12980.00
973.40	12798.00
973.82	12840.00
974.25	12754.00
974.68	12764.00
975.11	12498.00
975.54	12260.00
975.96	12146.00
976.39	12140.00
976.82	12270.00
977.25	12054.00
977.67	12026.00
978.10	12132.00
978.53	12296.00
978.96	12658.00
979.38	12752.00
979.81	12788.00
980.24	13263.00
980.67	13516.00
981.09	13578.00
981.52	13805.00
981.95	13786.00
982.38	13916.00
982.80	13950.00
983.23	14190.00
983.66	14292.00
984.08	13990.00
984.51	13894.00
984.94	13784.00
985.37	13648.00
985.79	13488.00
986.22	13152.00
986.65	13024.00
987.07	13004.00
987.50	12928.00
987.93	12882.00
988.35	12996.00
988.78	12998.00
989.21	13024.00
989.63	13312.00
990.06	13463.00
990.49	13716.00
990.91	13898.00
991.34	13882.00
991.77	13900.00
992.19	13970.00
992.62	13954.00
993.05	13850.00
993.47	13700.00
993.90	13769.00
994.32	13489.00
994.75	13276.00
995.18	13029.00
995.60	12949.00
996.03	12692.00
996.45	12666.00
996.88	12468.00
997.31	12544.00
997.73	12482.00
998.16	12427.00
998.58	12664.00
999.01	12708.00
999.44	12908.00
999.86	13040.00
1000.29	13086.00
1000.71	13092.00
1001.14	13246.00
1001.56	13122.00
1001.99	13044.00
1002.41	12937.00
1002.84	12774.00
1003.27	12500.00
1003.69	12285.00
1004.12	11998.00
1004.54	11915.00
1004.97	11778.00
1005.39	11718.00
1005.82	11593.00
1006.24	11502.00
1006.67	11374.00
1007.09	11393.00
1007.52	11366.00
1007.94	11358.00
1008.37	11626.00
1008.79	11544.00
1009.22	11516.00
1009.64	11634.00
1010.07	11706.00
1010.49	11673.00
1010.92	11656.00
1011.34	11752.00
1011.77	11766.00
1012.19	11741.00
1012.62	11646.00
1013.04	11364.00
1013.46	11283.00
1013.89	11133.00
1014.31	11022.00
1014.74	10786.00
1015.16	10686.00
1015.59	10512.00
1016.01	10596.00
1016.44	10494.00
1016.86	11824.00
1017.28	10660.00
1017.71	10658.00
1018.13	11066.00
1018.56	11026.00
1018.98	11036.00
1019.40	11024.00
1019.83	11092.00
1020.25	11195.00
1020.68	11229.00
1021.10	11394.00
1021.52	11408.00
1021.95	11588.00
1022.37	11460.00
1022.79	11448.00
1023.22	11414.00
1023.64	11242.00
1024.07	11116.00
1024.49	11000.00
1024.91	10880.00
1025.34	10748.00
1025.76	10876.00
1026.18	10684.00
1026.61	10590.00
1027.03	10474.00
1027.45	10532.00
1027.88	10586.00
1028.30	10705.00
1028.72	10572.00
1029.15	10700.00
1029.57	10786.00
1029.99	10894.00
1030.41	10838.00
1030.84	10804.00
1031.26	10788.00
1031.68	10736.00
1032.11	10689.00
1032.53	10497.00
1032.95	10449.00
1033.37	10240.00
1033.80	10272.00
1034.22	9999.00
1034.64	9960.00
1035.06	9667.00
1035.49	9592.00
1035.91	9598.00
1036.33	9391.00
1036.75	9478.00
1037.18	9408.00
1037.60	9314.00
1038.02	9374.00
1038.44	9364.00
1038.87	9328.00
1039.29	9390.00
1039.71	9441.00
1040.13	9340.00
1040.55	9464.00
1040.98	9530.00
1041.40	9472.00
1041.82	9232.00
1042.24	9206.00
1042.66	9146.00
1043.09	9003.00
1043.51	8984.00
1043.93	8818.00
1044.35	8720.00
1044.77	8652.00
1045.20	8540.00
1045.62	8349.00
1046.04	8404.00
1046.46	8326.00
1046.88	8191.00
1047.30	8224.00
1047.72	8172.00
1048.15	8146.00
1048.57	7934.00
1048.99	8028.00
1049.41	8073.00
1049.83	8028.00
1050.25	7974.00
1050.67	8012.00
1051.09	7935.00
1051.52	7938.00
1051.94	7818.00
1052.36	7902.00
1052.78	7798.00
1053.20	7772.00
1053.62	7690.00
1054.04	7748.00
1054.46	7635.00
1054.88	7690.00
1055.30	7555.00
1055.72	7570.00
1056.14	7369.00
1056.57	7483.00
1056.99	7212.00
1057.41	7196.00
1057.83	7130.00
1058.25	6984.00
1058.67	6916.00
1059.09	6975.00
1059.51	6913.00
1059.93	6868.00
1060.35	6758.00
1060.77	6792.00
1061.19	6850.00
1061.61	6720.00
1062.03	6689.00
1062.45	6648.00
1062.87	6712.00
1063.29	6682.00
1063.71	6617.00
1064.13	6540.00
1064.55	6528.00
1064.97	6537.00
1065.39	6528.00
1065.81	6583.00
1066.23	6344.00
1066.65	6386.00
1067.07	6482.00
1067.49	6318.00
1067.91	6240.00
1068.33	6208.00
1068.75	6198.00
1069.17	6178.00
1069.59	6140.00
1070.00	6074.00
1070.42	6012.00
1070.84	5986.00
1071.26	5852.00
1071.68	5852.00
1072.10	5962.00
1072.52	5957.00
1072.94	5806.00
1073.36	5788.00
1073.78	5786.00
1074.20	5824.00
1074.62	5798.00
1075.03	5761.00
1075.45	5852.00
1075.87	5820.00
1076.29	5722.00
1076.71	5804.00
1077.13	5758.00
1077.55	5614.00
1077.97	5628.00
1078.38	5554.00
1078.80	5626.00
1079.22	5506.00
1079.64	5418.00
1080.06	5432.00
1080.48	5428.00
1080.89	5317.00
1081.31	5376.00
1081.73	5323.00
1082.15	5270.00
1082.57	5298.00
1082.99	5250.00
1083.40	5253.00
1083.82	5274.00
1084.24	5176.00
1084.66	5182.00
1085.08	5168.00
1085.49	5016.00
1085.91	5196.00
1086.33	6571.00
1086.75	5113.00
1087.17	5124.00
1087.58	5108.00
1088.00	5160.00
1088.42	5130.00
1088.84	4994.00
1089.25	4995.00
1089.67	5014.00
1090.09	4948.00
1090.51	4908.00
1090.92	4910.00
1091.34	4808.00
1091.76	4780.00
1092.18	4755.00
1092.59	4732.00
1093.01	4688.00
1093.43	4716.00
1093.84	4646.00
1094.26	4702.00
1094.68	4642.00
1095.10	4622.00
1095.51	4586.00
1095.93	4584.00
1096.35	4619.00
1096.76	4616.00
1097.18	4606.00
1097.60	4544.00
1098.01	4468.00
1098.43	4474.00
1098.85	4472.00
1099.26	4458.00
1099.68	4464.00
1100.10	4352.00
1100.51	4334.00
1100.93	4294.00
1101.35	4319.00
1101.76	4330.00
1102.18	4872.00
1102.60	4252.00
1103.01	4158.00
1103.43	4232.00
1103.84	4214.00
1104.26	4136.00
1104.68	4174.00
1105.09	4118.00
1105.51	4144.00
1105.92	4256.00
1106.34	4038.00
1106.76	4116.00
1107.17	4091.00
1107.59	4066.00
1108.00	3934.00
1108.42	3988.00
1108.83	3944.00
1109.25	3938.00
1109.67	3902.00
1110.08	3918.00
1110.50	3864.00
1110.91	3864.00
1111.33	3834.00
1111.74	3888.00
1112.16	3838.00
1112.57	3870.00
1112.99	3772.00
1113.41	3783.00
1113.82	3696.00
1114.24	3727.00
1114.65	3678.00
1115.07	3568.00
1115.48	3458.00
1115.90	2183.00
1116.31	2221.00
1116.73	2217.00
1117.14	2221.00
>>>>>End Processed Spectral Data<<<<<
