SpectraSuite Data File
++++++++++++++++++++++++++++++++++++
Date: Tue May 29 12:59:25 EEST 2018
User: CanSEE
Dark Spectrum Present: No
Reference Spectrum Present: No
Number of Sampled Component Spectra: 1
Spectrometers: MAYP11278
Integration Time (usec): 250000 (MAYP11278)
Spectra Averaged: 1 (MAYP11278)
Boxcar Smoothing: 0 (MAYP11278)
Correct for Electrical Dark: No (MAYP11278)
Strobe/Lamp Enabled: No (MAYP11278)
Correct for Detector Non-linearity: No (MAYP11278)
Correct for Stray Light: No (MAYP11278)
Number of Pixels in Processed Spectrum: 2068
>>>>>Begin Processed Spectral Data<<<<<
187.82	2321.00
188.30	2225.00
188.78	2197.00
189.26	2198.00
189.73	2987.00
190.21	3094.00
190.69	3211.00
191.17	3198.00
191.64	3252.00
192.12	3212.00
192.60	3212.00
193.07	3213.00
193.55	3267.00
194.03	3272.00
194.51	3256.00
194.98	3233.00
195.46	3277.00
195.94	3237.00
196.42	3214.00
196.89	3319.00
197.37	3225.00
197.85	3194.00
198.32	3214.00
198.80	3226.00
199.28	3241.00
199.76	3290.00
200.23	3237.00
200.71	3255.00
201.19	3272.00
201.66	3279.00
202.14	3273.00
202.62	3173.00
203.09	3276.00
203.57	3191.00
204.05	3277.00
204.53	3278.00
205.00	3235.00
205.48	3214.00
205.96	3313.00
206.43	3234.00
206.91	3254.00
207.39	3332.00
207.86	3221.00
208.34	3272.00
208.82	3236.00
209.29	3283.00
209.77	3239.00
210.25	3256.00
210.72	3253.00
211.20	3267.00
211.68	3230.00
212.15	3209.00
212.63	3325.00
213.11	3269.00
213.58	3224.00
214.06	3294.00
214.53	3255.00
215.01	3291.00
215.49	3257.00
215.96	3300.00
216.44	3293.00
216.92	3266.00
217.39	3213.00
217.87	3242.00
218.35	3281.00
218.82	3193.00
219.30	3202.00
219.77	3207.00
220.25	3253.00
220.73	3311.00
221.20	3208.00
221.68	3291.00
222.15	3224.00
222.63	3266.00
223.11	3227.00
223.58	3279.00
224.06	3225.00
224.53	3216.00
225.01	3201.00
225.49	3234.00
225.96	3213.00
226.44	3211.00
226.91	3257.00
227.39	3225.00
227.87	3246.00
228.34	3253.00
228.82	3231.00
229.29	3252.00
229.77	3242.00
230.24	3219.00
230.72	3284.00
231.20	3283.00
231.67	3196.00
232.15	3229.00
232.62	3155.00
233.10	3233.00
233.57	3269.00
234.05	3371.00
234.53	3260.00
235.00	3217.00
235.48	3230.00
235.95	3234.00
236.43	3266.00
236.90	3315.00
237.38	3219.00
237.85	3227.00
238.33	3258.00
238.80	3254.00
239.28	3239.00
239.75	3194.00
240.23	3240.00
240.71	3318.00
241.18	3249.00
241.66	3262.00
242.13	3291.00
242.61	3301.00
243.08	3208.00
243.56	3243.00
244.03	3293.00
244.51	3274.00
244.98	3228.00
245.46	3306.00
245.93	4128.00
246.41	3235.00
246.88	3224.00
247.36	3239.00
247.83	3223.00
248.31	3279.00
248.78	3205.00
249.26	3242.00
249.73	3309.00
250.21	3282.00
250.68	3304.00
251.16	3254.00
251.63	3351.00
252.10	3315.00
252.58	3222.00
253.05	3256.00
253.53	3232.00
254.00	3240.00
254.48	3291.00
254.95	3321.00
255.43	3303.00
255.90	3240.00
256.38	3260.00
256.85	3320.00
257.33	3301.00
257.80	3358.00
258.27	3309.00
258.75	3252.00
259.22	3283.00
259.70	3277.00
260.17	3322.00
260.65	3282.00
261.12	3278.00
261.59	3304.00
262.07	3275.00
262.54	3340.00
263.02	3262.00
263.49	3224.00
263.97	3271.00
264.44	3316.00
264.91	3268.00
265.39	3284.00
265.86	3305.00
266.34	3309.00
266.81	3260.00
267.28	3277.00
267.76	3273.00
268.23	3253.00
268.71	3181.00
269.18	3194.00
269.65	3197.00
270.13	3265.00
270.60	3299.00
271.08	3276.00
271.55	3243.00
272.02	3256.00
272.50	3259.00
272.97	3207.00
273.44	3273.00
273.92	3359.00
274.39	3256.00
274.87	3283.00
275.34	3243.00
275.81	3224.00
276.29	3251.00
276.76	3257.00
277.23	3179.00
277.71	3187.00
278.18	3140.00
278.65	3317.00
279.13	3192.00
279.60	3235.00
280.07	3439.00
280.55	3450.00
281.02	3510.00
281.50	3364.00
281.97	3381.00
282.44	3299.00
282.91	3291.00
283.39	3316.00
283.86	3279.00
284.33	3279.00
284.81	3295.00
285.28	3299.00
285.75	3276.00
286.23	3271.00
286.70	3250.00
287.17	3284.00
287.65	3298.00
288.12	3281.00
288.59	3274.00
289.07	3205.00
289.54	3316.00
290.01	3275.00
290.48	3297.00
290.96	3272.00
291.43	3305.00
291.90	3379.00
292.38	3239.00
292.85	3290.00
293.32	3227.00
293.79	3298.00
294.27	3269.00
294.74	3257.00
295.21	3287.00
295.69	3306.00
296.16	3342.00
296.63	3337.00
297.10	3315.00
297.58	3277.00
298.05	3301.00
298.52	3262.00
298.99	3334.00
299.47	3286.00
299.94	3296.00
300.41	3254.00
300.88	3300.00
301.36	3280.00
301.83	3315.00
302.30	3236.00
302.77	3334.00
303.25	3299.00
303.72	3286.00
304.19	3286.00
304.66	3262.00
305.13	3271.00
305.61	3282.00
306.08	3270.00
306.55	3267.00
307.02	3263.00
307.49	3260.00
307.97	3279.00
308.44	3277.00
308.91	3306.00
309.38	3318.00
309.86	3298.00
310.33	3257.00
310.80	3284.00
311.27	3267.00
311.74	3311.00
312.21	3322.00
312.69	3367.00
313.16	3256.00
313.63	3251.00
314.10	3277.00
314.57	3264.00
315.05	3241.00
315.52	3305.00
315.99	3303.00
316.46	3269.00
316.93	3336.00
317.40	3280.00
317.88	3375.00
318.35	3282.00
318.82	3272.00
319.29	3255.00
319.76	3309.00
320.23	3371.00
320.70	3307.00
321.18	3267.00
321.65	3226.00
322.12	3224.00
322.59	3361.00
323.06	3229.00
323.53	3374.00
324.00	3241.00
324.48	3285.00
324.95	3247.00
325.42	3277.00
325.89	3304.00
326.36	3268.00
326.83	3316.00
327.30	3315.00
327.77	3363.00
328.24	3334.00
328.72	3285.00
329.19	3317.00
329.66	3280.00
330.13	3264.00
330.60	3340.00
331.07	3336.00
331.54	3391.00
332.01	3315.00
332.48	3404.00
332.95	3402.00
333.43	3293.00
333.90	3357.00
334.37	3331.00
334.84	3346.00
335.31	3460.00
335.78	3285.00
336.25	3329.00
336.72	3314.00
337.19	3294.00
337.66	3267.00
338.13	3278.00
338.60	3348.00
339.07	3325.00
339.54	3238.00
340.01	3238.00
340.49	3243.00
340.96	3312.00
341.43	3308.00
341.90	3229.00
342.37	3257.00
342.84	3251.00
343.31	3299.00
343.78	3200.00
344.25	3277.00
344.72	3227.00
345.19	3268.00
345.66	3274.00
346.13	3245.00
346.60	3249.00
347.07	3299.00
347.54	3232.00
348.01	3273.00
348.48	3256.00
348.95	3228.00
349.42	3263.00
349.89	3320.00
350.36	3237.00
350.83	3229.00
351.30	3280.00
351.77	3332.00
352.24	3264.00
352.71	3252.00
353.18	3246.00
353.65	3278.00
354.12	3279.00
354.59	3285.00
355.06	3272.00
355.53	3292.00
356.00	3247.00
356.47	3311.00
356.94	3213.00
357.41	3358.00
357.88	3290.00
358.35	3226.00
358.82	3264.00
359.28	3253.00
359.75	3243.00
360.22	3343.00
360.69	3327.00
361.16	3240.00
361.63	3268.00
362.10	3286.00
362.57	3264.00
363.04	3252.00
363.51	3354.00
363.98	3264.00
364.45	3251.00
364.92	3322.00
365.39	3255.00
365.86	3247.00
366.32	3298.00
366.79	3293.00
367.26	3864.00
367.73	3305.00
368.20	3253.00
368.67	3294.00
369.14	3234.00
369.61	3314.00
370.08	3293.00
370.55	3248.00
371.02	3818.00
371.48	3302.00
371.95	3254.00
372.42	3231.00
372.89	3306.00
373.36	3324.00
373.83	3234.00
374.30	3251.00
374.77	3296.00
375.23	3223.00
375.70	3338.00
376.17	3257.00
376.64	3263.00
377.11	3267.00
377.58	3297.00
378.05	3268.00
378.51	3281.00
378.98	3287.00
379.45	3285.00
379.92	3334.00
380.39	3396.00
380.86	3333.00
381.33	3325.00
381.79	3355.00
382.26	3231.00
382.73	3302.00
383.20	3290.00
383.67	3315.00
384.14	3309.00
384.60	3465.00
385.07	3279.00
385.54	3293.00
386.01	3289.00
386.48	3351.00
386.94	3292.00
387.41	3248.00
387.88	3352.00
388.35	3333.00
388.82	3359.00
389.28	3262.00
389.75	3331.00
390.22	3318.00
390.69	3314.00
391.16	3289.00
391.62	3333.00
392.09	3288.00
392.56	3296.00
393.03	3286.00
393.50	3392.00
393.96	3289.00
394.43	3328.00
394.90	3274.00
395.37	3327.00
395.83	3495.00
396.30	3287.00
396.77	3283.00
397.24	3348.00
397.70	3268.00
398.17	3306.00
398.64	3265.00
399.11	3270.00
399.57	3339.00
400.04	3280.00
400.51	3298.00
400.98	3287.00
401.44	3307.00
401.91	3306.00
402.38	3290.00
402.84	3267.00
403.31	3329.00
403.78	3267.00
404.25	3362.00
404.71	3372.00
405.18	3322.00
405.65	3230.00
406.12	3352.00
406.58	3303.00
407.05	3358.00
407.52	3332.00
407.98	3908.00
408.45	3296.00
408.92	3249.00
409.38	3335.00
409.85	3227.00
410.32	3298.00
410.78	3268.00
411.25	3328.00
411.72	3281.00
412.18	3211.00
412.65	3303.00
413.12	3280.00
413.59	3320.00
414.05	3284.00
414.52	3326.00
414.98	3255.00
415.45	3349.00
415.92	3282.00
416.38	3272.00
416.85	3370.00
417.32	3280.00
417.78	3244.00
418.25	3300.00
418.72	3304.00
419.18	3294.00
419.65	3232.00
420.12	3298.00
420.58	3225.00
421.05	3297.00
421.51	3286.00
421.98	3294.00
422.45	3245.00
422.91	3269.00
423.38	3289.00
423.85	3305.00
424.31	3247.00
424.78	3303.00
425.24	3268.00
425.71	3350.00
426.18	3254.00
426.64	3333.00
427.11	3297.00
427.57	3313.00
428.04	3251.00
428.51	3304.00
428.97	3316.00
429.44	3267.00
429.90	3260.00
430.37	3378.00
430.83	3250.00
431.30	3268.00
431.77	3361.00
432.23	3329.00
432.70	3283.00
433.16	3229.00
433.63	3262.00
434.09	3243.00
434.56	3314.00
435.03	3252.00
435.49	3305.00
435.96	3301.00
436.42	3253.00
436.89	3287.00
437.35	3294.00
437.82	3280.00
438.28	3268.00
438.75	3258.00
439.21	3416.00
439.68	3280.00
440.14	3295.00
440.61	3327.00
441.07	3226.00
441.54	3274.00
442.00	3362.00
442.47	3227.00
442.94	3259.00
443.40	3279.00
443.87	3219.00
444.33	3324.00
444.80	3262.00
445.26	3307.00
445.73	3254.00
446.19	3268.00
446.65	3253.00
447.12	3265.00
447.58	3252.00
448.05	3235.00
448.51	3293.00
448.98	3297.00
449.44	3259.00
449.91	3207.00
450.37	3215.00
450.84	3247.00
451.30	3261.00
451.77	3269.00
452.23	3216.00
452.70	3289.00
453.16	3241.00
453.62	3228.00
454.09	3257.00
454.55	3286.00
455.02	3221.00
455.48	3232.00
455.95	3262.00
456.41	3228.00
456.88	3265.00
457.34	3227.00
457.80	3206.00
458.27	3172.00
458.73	3218.00
459.20	3185.00
459.66	3210.00
460.13	3163.00
460.59	3187.00
461.05	3250.00
461.52	3187.00
461.98	3146.00
462.45	3131.00
462.91	3205.00
463.37	3156.00
463.84	3162.00
464.30	3130.00
464.76	3116.00
465.23	3107.00
465.69	3184.00
466.16	3163.00
466.62	3151.00
467.08	3134.00
467.55	3147.00
468.01	3132.00
468.48	3121.00
468.94	3114.00
469.40	3124.00
469.87	3116.00
470.33	3113.00
470.79	3104.00
471.26	3075.00
471.72	3083.00
472.18	3083.00
472.65	3098.00
473.11	3123.00
473.57	3092.00
474.04	3069.00
474.50	3091.00
474.96	3070.00
475.43	3094.00
475.89	3067.00
476.35	3098.00
476.82	3082.00
477.28	3064.00
477.74	3120.00
478.21	3073.00
478.67	3114.00
479.13	3054.00
479.59	3146.00
480.06	3067.00
480.52	3050.00
480.98	3004.00
481.45	3067.00
481.91	3063.00
482.37	3010.00
482.84	3035.00
483.30	3034.00
483.76	3074.00
484.22	3155.00
484.69	3064.00
485.15	3047.00
485.61	2962.00
486.07	3052.00
486.54	2987.00
487.00	3071.00
487.46	3019.00
487.92	3014.00
488.39	3044.00
488.85	3070.00
489.31	3069.00
489.77	3091.00
490.24	3028.00
490.70	3069.00
491.16	3056.00
491.62	3034.00
492.09	3003.00
492.55	3063.00
493.01	3055.00
493.47	3083.00
493.94	3055.00
494.40	3072.00
494.86	3067.00
495.32	3027.00
495.78	3074.00
496.25	3063.00
496.71	3097.00
497.17	3136.00
497.63	3079.00
498.09	3044.00
498.56	3078.00
499.02	3075.00
499.48	3187.00
499.94	3067.00
500.40	3081.00
500.87	3109.00
501.33	3101.00
501.79	3155.00
502.25	3099.00
502.71	3341.00
503.17	3124.00
503.64	3186.00
504.10	3140.00
504.56	3171.00
505.02	3184.00
505.48	3165.00
505.94	3189.00
506.40	3216.00
506.87	3194.00
507.33	3247.00
507.79	3248.00
508.25	3271.00
508.71	3278.00
509.17	3260.00
509.63	3321.00
510.10	3342.00
510.56	3361.00
511.02	3436.00
511.48	3440.00
511.94	3391.00
512.40	3419.00
512.86	3526.00
513.32	3573.00
513.78	3487.00
514.25	3606.00
514.71	4193.00
515.17	3623.00
515.63	3768.00
516.09	3725.00
516.55	3738.00
517.01	3882.00
517.47	3846.00
517.93	3871.00
518.39	4109.00
518.85	4024.00
519.32	4150.00
519.78	4143.00
520.24	4243.00
520.70	4299.00
521.16	4421.00
521.62	4590.00
522.08	4599.00
522.54	4586.00
523.00	4745.00
523.46	4827.00
523.92	4891.00
524.38	5128.00
524.84	5051.00
525.30	5115.00
525.76	5185.00
526.22	5101.00
526.68	5120.00
527.14	5219.00
527.60	5383.00
528.06	5483.00
528.52	5614.00
528.98	5644.00
529.44	5689.00
529.90	5765.00
530.36	5923.00
530.82	5953.00
531.28	6086.00
531.74	6031.00
532.20	5966.00
532.66	5896.00
533.12	6087.00
533.58	6081.00
534.04	6194.00
534.50	6180.00
534.96	6328.00
535.42	6460.00
535.88	6438.00
536.34	6382.00
536.80	6347.00
537.26	6483.00
537.72	6550.00
538.18	6548.00
538.64	6608.00
539.10	6565.00
539.56	6712.00
540.02	6411.00
540.48	6480.00
540.94	6566.00
541.40	6572.00
541.86	6719.00
542.32	6717.00
542.78	6703.00
543.24	6826.00
543.69	6799.00
544.15	6966.00
544.61	6886.00
545.07	6928.00
545.53	6900.00
545.99	6953.00
546.45	7017.00
546.91	7029.00
547.37	7000.00
547.83	6935.00
548.29	7036.00
548.74	7064.00
549.20	6970.00
549.66	7191.00
550.12	7131.00
550.58	7030.00
551.04	7148.00
551.50	7226.00
551.96	7283.00
552.42	7194.00
552.87	7169.00
553.33	7253.00
553.79	7233.00
554.25	7251.00
554.71	7297.00
555.17	7273.00
555.63	7282.00
556.08	7198.00
556.54	7124.00
557.00	7083.00
557.46	7171.00
557.92	7162.00
558.38	6943.00
558.83	6960.00
559.29	6918.00
559.75	6844.00
560.21	6870.00
560.67	7025.00
561.13	6929.00
561.58	6842.00
562.04	6835.00
562.50	6755.00
562.96	6835.00
563.42	6756.00
563.87	6674.00
564.33	6660.00
564.79	6558.00
565.25	6487.00
565.71	6430.00
566.16	6382.00
566.62	6370.00
567.08	6355.00
567.54	6254.00
568.00	6204.00
568.45	6106.00
568.91	6010.00
569.37	6045.00
569.83	5954.00
570.28	5795.00
570.74	5770.00
571.20	5728.00
571.66	5728.00
572.11	5725.00
572.57	5724.00
573.03	5588.00
573.49	5556.00
573.94	5501.00
574.40	5526.00
574.86	5402.00
575.32	5344.00
575.77	5293.00
576.23	5211.00
576.69	5345.00
577.15	5146.00
577.60	5201.00
578.06	5027.00
578.52	5117.00
578.97	5086.00
579.43	5010.00
579.89	5062.00
580.34	5076.00
580.80	4964.00
581.26	4956.00
581.72	4969.00
582.17	4941.00
582.63	4828.00
583.09	4887.00
583.54	4860.00
584.00	4826.00
584.46	4896.00
584.91	4769.00
585.37	4851.00
585.83	4702.00
586.28	4632.00
586.74	4641.00
587.20	4637.00
587.65	4679.00
588.11	4566.00
588.57	4509.00
589.02	4433.00
589.48	4379.00
589.94	4482.00
590.39	4535.00
590.85	4482.00
591.30	4535.00
591.76	4518.00
592.22	4519.00
592.67	4481.00
593.13	4438.00
593.59	4539.00
594.04	4486.00
594.50	4429.00
594.95	4504.00
595.41	4425.00
595.87	4420.00
596.32	4440.00
596.78	4524.00
597.23	4463.00
597.69	4469.00
598.15	4380.00
598.60	4418.00
599.06	4461.00
599.51	4384.00
599.97	4400.00
600.43	4374.00
600.88	4388.00
601.34	4350.00
601.79	4338.00
602.25	4423.00
602.70	4318.00
603.16	4356.00
603.61	4317.00
604.07	4288.00
604.53	4370.00
604.98	4309.00
605.44	4286.00
605.89	4253.00
606.35	4259.00
606.80	4270.00
607.26	4241.00
607.71	4227.00
608.17	4193.00
608.62	4151.00
609.08	4248.00
609.53	4157.00
609.99	4109.00
610.44	4054.00
610.90	4091.00
611.35	3985.00
611.81	4101.00
612.26	4095.00
612.72	4046.00
613.17	4149.00
613.63	3932.00
614.08	3894.00
614.54	3959.00
614.99	3907.00
615.45	3848.00
615.90	3879.00
616.36	3862.00
616.81	3853.00
617.27	3893.00
617.72	3867.00
618.18	3833.00
618.63	3816.00
619.09	3818.00
619.54	3854.00
619.99	3801.00
620.45	3834.00
620.90	3863.00
621.36	3783.00
621.81	3805.00
622.27	3837.00
622.72	3852.00
623.18	3725.00
623.63	3721.00
624.08	3775.00
624.54	3725.00
624.99	3728.00
625.45	3751.00
625.90	3677.00
626.35	3709.00
626.81	3761.00
627.26	3712.00
627.72	3761.00
628.17	3787.00
628.62	3706.00
629.08	3720.00
629.53	3744.00
629.99	3632.00
630.44	3722.00
630.89	3747.00
631.35	3735.00
631.80	3747.00
632.26	3738.00
632.71	3647.00
633.16	3695.00
633.62	3658.00
634.07	3654.00
634.52	3675.00
634.98	3680.00
635.43	3676.00
635.88	3607.00
636.34	3640.00
636.79	3632.00
637.24	3598.00
637.70	3639.00
638.15	3685.00
638.60	3600.00
639.06	3540.00
639.51	3543.00
639.96	3525.00
640.42	3571.00
640.87	3564.00
641.32	3533.00
641.78	3479.00
642.23	3455.00
642.68	3434.00
643.14	3424.00
643.59	3472.00
644.04	3415.00
644.49	3350.00
644.95	3374.00
645.40	3346.00
645.85	3353.00
646.31	3354.00
646.76	3363.00
647.21	3332.00
647.66	3357.00
648.12	3314.00
648.57	3252.00
649.02	3332.00
649.47	3287.00
649.93	3424.00
650.38	3279.00
650.83	3265.00
651.28	3231.00
651.74	3272.00
652.19	3206.00
652.64	3256.00
653.09	3226.00
653.55	3205.00
654.00	3227.00
654.45	3253.00
654.90	3211.00
655.35	3190.00
655.81	3233.00
656.26	3151.00
656.71	3159.00
657.16	3221.00
657.62	3214.00
658.07	3171.00
658.52	3184.00
658.97	3152.00
659.42	3358.00
659.88	3174.00
660.33	3215.00
660.78	3174.00
661.23	3104.00
661.68	3187.00
662.13	3130.00
662.59	3105.00
663.04	3182.00
663.49	3137.00
663.94	3124.00
664.39	3117.00
664.84	3095.00
665.30	3130.00
665.75	3060.00
666.20	3113.00
666.65	3122.00
667.10	3213.00
667.55	3129.00
668.00	3055.00
668.46	3147.00
668.91	3060.00
669.36	3189.00
669.81	3022.00
670.26	3105.00
670.71	3143.00
671.16	3055.00
671.61	3191.00
672.06	3180.00
672.52	3063.00
672.97	3097.00
673.42	3105.00
673.87	3196.00
674.32	3100.00
674.77	3068.00
675.22	3017.00
675.67	3067.00
676.12	3125.00
676.57	3080.00
677.02	3113.00
677.47	3113.00
677.93	3170.00
678.38	3056.00
678.83	3095.00
679.28	3111.00
679.73	3036.00
680.18	3098.00
680.63	3097.00
681.08	3040.00
681.53	3049.00
681.98	3063.00
682.43	3141.00
682.88	3106.00
683.33	3126.00
683.78	3119.00
684.23	3169.00
684.68	3107.00
685.13	3186.00
685.58	3163.00
686.03	3142.00
686.48	3120.00
686.93	3159.00
687.38	3164.00
687.83	3232.00
688.28	3267.00
688.73	3344.00
689.18	3298.00
689.63	3292.00
690.08	3337.00
690.53	3400.00
690.98	3427.00
691.43	3525.00
691.88	3565.00
692.33	3689.00
692.78	3746.00
693.23	3862.00
693.68	4012.00
694.13	4055.00
694.58	4208.00
695.03	4513.00
695.48	4484.00
695.93	4724.00
696.38	4969.00
696.83	5136.00
697.28	5272.00
697.72	5529.00
698.17	5662.00
698.62	5943.00
699.07	6201.00
699.52	6409.00
699.97	6691.00
700.42	6951.00
700.87	7347.00
701.32	7631.00
701.77	7774.00
702.22	8114.00
702.67	8390.00
703.11	8775.00
703.56	9252.00
704.01	9518.00
704.46	9892.00
704.91	10248.00
705.36	10643.00
705.81	10918.00
706.26	11209.00
706.70	11695.00
707.15	12054.00
707.60	12435.00
708.05	12904.00
708.50	13209.00
708.95	13553.00
709.40	13941.00
709.84	14229.00
710.29	14704.00
710.74	14989.00
711.19	15371.00
711.64	15874.00
712.09	16251.00
712.53	16597.00
712.98	16933.00
713.43	17387.00
713.88	17742.00
714.33	18012.00
714.78	18140.00
715.22	18568.00
715.67	18971.00
716.12	19077.00
716.57	18578.00
717.02	18216.00
717.46	17939.00
717.91	18029.00
718.36	17811.00
718.81	17790.00
719.26	18016.00
719.70	18611.00
720.15	19099.00
720.60	19850.00
721.05	21516.00
721.49	22752.00
721.94	23495.00
722.39	23587.00
722.84	23479.00
723.28	22768.00
723.73	22739.00
724.18	22758.00
724.63	23506.00
725.07	23756.00
725.52	24433.00
725.97	24844.00
726.42	25306.00
726.86	26100.00
727.31	25866.00
727.76	25994.00
728.21	26808.00
728.65	27077.00
729.10	26953.00
729.55	27934.00
729.99	28554.00
730.44	28799.00
730.89	29282.00
731.33	30213.00
731.78	30856.00
732.23	32109.00
732.68	32749.00
733.12	33042.00
733.57	34208.00
734.02	34749.00
734.46	35535.00
734.91	35630.00
735.36	35979.00
735.80	36122.00
736.25	36568.00
736.70	36885.00
737.14	37293.00
737.59	37783.00
738.04	38150.00
738.48	38042.00
738.93	37942.00
739.37	38562.00
739.82	39129.00
740.27	39810.00
740.71	39733.00
741.16	39828.00
741.61	40112.00
742.05	40226.00
742.50	40523.00
742.94	41331.00
743.39	41661.00
743.84	41712.00
744.28	41741.00
744.73	42133.00
745.18	42381.00
745.62	42877.00
746.07	43057.00
746.51	43023.00
746.96	43033.00
747.40	43060.00
747.85	42873.00
748.30	42973.00
748.74	42909.00
749.19	42945.00
749.63	43256.00
750.08	43466.00
750.52	43352.00
750.97	43329.00
751.42	43315.00
751.86	43581.00
752.31	43306.00
752.75	43395.00
753.20	43274.00
753.64	43622.00
754.09	43847.00
754.53	43948.00
754.98	43816.00
755.42	43728.00
755.87	43853.00
756.31	43574.00
756.76	43309.00
757.20	43052.00
757.65	42902.00
758.09	42308.00
758.54	41239.00
758.98	37653.00
759.43	30021.00
759.87	21394.00
760.32	15945.00
760.76	14941.00
761.21	18322.00
761.65	22929.00
762.10	24553.00
762.54	23432.00
762.99	22058.00
763.43	22544.00
763.88	23889.00
764.32	26010.00
764.77	28244.00
765.21	30332.00
765.66	32267.00
766.10	34252.00
766.54	35811.00
766.99	37480.00
767.43	38792.00
767.88	40013.00
768.32	40856.00
768.77	41418.00
769.21	41997.00
769.66	42603.00
770.10	43061.00
770.54	43310.00
770.99	43394.00
771.43	43466.00
771.88	43362.00
772.32	43380.00
772.76	43183.00
773.21	43236.00
773.65	43203.00
774.10	42769.00
774.54	42908.00
774.98	43089.00
775.43	43164.00
775.87	43916.00
776.31	44144.00
776.76	43917.00
777.20	43730.00
777.65	43279.00
778.09	42992.00
778.53	42782.00
778.98	43011.00
779.42	42812.00
779.86	42844.00
780.31	42652.00
780.75	43009.00
781.19	43144.00
781.64	43440.00
782.08	43343.00
782.52	43236.00
782.97	42690.00
783.41	42305.00
783.85	42012.00
784.30	41959.00
784.74	41736.00
785.18	41588.00
785.63	41803.00
786.07	41694.00
786.51	41973.00
786.95	42154.00
787.40	41815.00
787.84	41465.00
788.28	41300.00
788.73	41000.00
789.17	40499.00
789.61	40080.00
790.05	40150.00
790.50	39812.00
790.94	39774.00
791.38	39671.00
791.82	39794.00
792.27	39806.00
792.71	40128.00
793.15	40409.00
793.59	40190.00
794.04	39760.00
794.48	39622.00
794.92	39146.00
795.36	38788.00
795.81	38621.00
796.25	38529.00
796.69	38547.00
797.13	39018.00
797.57	39471.00
798.02	39645.00
798.46	39877.00
798.90	39725.00
799.34	39239.00
799.79	38780.00
800.23	38150.00
800.67	38099.00
801.11	37772.00
801.55	37709.00
801.99	37508.00
802.44	37732.00
802.88	38132.00
803.32	38549.00
803.76	38394.00
804.20	38416.00
804.64	38380.00
805.09	38125.00
805.53	38408.00
805.97	37904.00
806.41	37533.00
806.85	37186.00
807.29	36935.00
807.74	36606.00
808.18	36720.00
808.62	36943.00
809.06	36828.00
809.50	37002.00
809.94	36974.00
810.38	37058.00
810.82	37015.00
811.27	36836.00
811.71	35962.00
812.15	35572.00
812.59	34493.00
813.03	33587.00
813.47	32329.00
813.91	31739.00
814.35	31189.00
814.79	30897.00
815.23	30745.00
815.67	30137.00
816.12	30460.00
816.56	30228.00
817.00	30604.00
817.44	30596.00
817.88	30823.00
818.32	30022.00
818.76	30401.00
819.20	30213.00
819.64	30496.00
820.08	31068.00
820.52	31781.00
820.96	32497.00
821.40	32205.00
821.84	31306.00
822.28	29414.00
822.72	29034.00
823.16	28782.00
823.60	30197.00
824.04	32276.00
824.48	32852.00
824.92	32843.00
825.36	32626.00
825.80	32304.00
826.24	32022.00
826.68	31863.00
827.12	31776.00
827.56	31187.00
828.00	31054.00
828.44	31377.00
828.88	31869.00
829.32	32170.00
829.76	32060.00
830.20	32638.00
830.64	32157.00
831.08	31990.00
831.52	31606.00
831.96	31098.00
832.40	30808.00
832.84	31208.00
833.28	31528.00
833.72	32064.00
834.16	32865.00
834.60	33684.00
835.04	33998.00
835.48	34120.00
835.91	33984.00
836.35	33881.00
836.79	33280.00
837.23	33326.00
837.67	32997.00
838.11	32829.00
838.55	33054.00
838.99	32937.00
839.43	33295.00
839.87	33858.00
840.30	34276.00
840.74	34713.00
841.18	34940.00
841.62	35190.00
842.06	35041.00
842.50	34908.00
842.94	34454.00
843.38	33797.00
843.81	33260.00
844.25	33052.00
844.69	32892.00
845.13	32899.00
845.57	33024.00
846.01	33274.00
846.45	33478.00
846.88	34100.00
847.32	34268.00
847.76	34861.00
848.20	34896.00
848.64	34600.00
849.08	33832.00
849.51	33676.00
849.95	32892.00
850.39	32698.00
850.83	33059.00
851.27	33047.00
851.70	32546.00
852.14	32308.00
852.58	32001.00
853.02	31094.00
853.46	30038.00
853.89	30065.00
854.33	29994.00
854.77	31150.00
855.21	33150.00
855.65	34140.00
856.08	34589.00
856.52	34567.00
856.96	34289.00
857.40	33520.00
857.83	33007.00
858.27	32259.00
858.71	31913.00
859.15	31894.00
859.58	32354.00
860.02	32712.00
860.46	33069.00
860.89	33741.00
861.33	34051.00
861.77	34314.00
862.21	34559.00
862.64	34866.00
863.08	34513.00
863.52	34227.00
863.95	33492.00
864.39	32783.00
864.83	31628.00
865.27	30470.00
865.70	29962.00
866.14	29599.00
866.58	29565.00
867.01	31100.00
867.45	32250.00
867.89	32920.00
868.32	33488.00
868.76	34026.00
869.20	34032.00
869.63	34037.00
870.07	33324.00
870.51	32544.00
870.94	31955.00
871.38	31269.00
871.82	30796.00
872.25	30746.00
872.69	30794.00
873.13	30957.00
873.56	31525.00
874.00	31827.00
874.43	32105.00
874.87	32791.00
875.31	33000.00
875.74	33189.00
876.18	33638.00
876.61	33144.00
877.05	32960.00
877.49	32172.00
877.92	31974.00
878.36	31365.00
878.79	30879.00
879.23	30366.00
879.67	29851.00
880.10	29928.00
880.54	30147.00
880.97	30356.00
881.41	31288.00
881.84	32148.00
882.28	32862.00
882.72	33095.00
883.15	33481.00
883.59	33407.00
884.02	33362.00
884.46	32931.00
884.89	32501.00
885.33	31606.00
885.76	30788.00
886.20	30141.00
886.63	29753.00
887.07	29458.00
887.50	29719.00
887.94	30005.00
888.37	30286.00
888.81	30786.00
889.24	30992.00
889.68	31454.00
890.11	31907.00
890.55	32150.00
890.98	32489.00
891.42	32555.00
891.85	32006.00
892.29	31667.00
892.72	30683.00
893.16	29958.00
893.59	29105.00
894.03	28242.00
894.46	27421.00
894.90	26543.00
895.33	25437.00
895.77	25491.00
896.20	25270.00
896.63	25384.00
897.07	25726.00
897.50	25371.00
897.94	25561.00
898.37	26495.00
898.81	25232.00
899.24	24495.00
899.68	25937.00
900.11	25377.00
900.54	24559.00
900.98	24439.00
901.41	24169.00
901.85	24162.00
902.28	24600.00
902.71	24718.00
903.15	25630.00
903.58	26491.00
904.02	26532.00
904.45	26517.00
904.88	26640.00
905.32	26317.00
905.75	26340.00
906.18	25403.00
906.62	25533.00
907.05	25109.00
907.48	25088.00
907.92	24479.00
908.35	24612.00
908.79	24056.00
909.22	23916.00
909.65	23510.00
910.09	23474.00
910.52	23158.00
910.95	23194.00
911.38	23665.00
911.82	22660.00
912.25	23232.00
912.68	23566.00
913.12	23695.00
913.55	23802.00
913.98	24492.00
914.42	25380.00
914.85	25548.00
915.28	24290.00
915.72	23848.00
916.15	23735.00
916.58	23766.00
917.01	23161.00
917.45	22430.00
917.88	23074.00
918.31	23496.00
918.74	24212.00
919.18	24780.00
919.61	24690.00
920.04	25164.00
920.47	25465.00
920.91	25799.00
921.34	25730.00
921.77	25974.00
922.20	26308.00
922.64	26141.00
923.07	25869.00
923.50	25532.00
923.93	25218.00
924.37	24652.00
924.80	24192.00
925.23	23941.00
925.66	23233.00
926.09	22214.00
926.53	21850.00
926.96	20935.00
927.39	20250.00
927.82	19230.00
928.25	18487.00
928.69	18120.00
929.12	17946.00
929.55	17048.00
929.98	16369.00
930.41	15165.00
930.84	14426.00
931.28	13450.00
931.71	12435.00
932.14	11272.00
932.57	10604.00
933.00	10235.00
933.43	9709.00
933.86	9295.00
934.30	8746.00
934.73	9802.00
935.16	9584.00
935.59	8877.00
936.02	9456.00
936.45	9230.00
936.88	9085.00
937.31	10028.00
937.75	10419.00
938.18	11031.00
938.61	11552.00
939.04	12067.00
939.47	11895.00
939.90	11093.00
940.33	10677.00
940.76	10004.00
941.19	9452.00
941.62	9317.00
942.05	9388.00
942.48	8394.00
942.91	8229.00
943.35	8875.00
943.78	8367.00
944.21	8179.00
944.64	8859.00
945.07	9070.00
945.50	8896.00
945.93	9082.00
946.36	9456.00
946.79	9796.00
947.22	10328.00
947.65	10148.00
948.08	9564.00
948.51	10209.00
948.94	10556.00
949.37	10109.00
949.80	9544.00
950.23	9604.00
950.66	10169.00
951.09	10218.00
951.52	9768.00
951.95	9956.00
952.38	10161.00
952.81	10787.00
953.24	11457.00
953.67	11633.00
954.10	11369.00
954.53	11885.00
954.96	11771.00
955.39	11929.00
955.82	12711.00
956.25	12259.00
956.68	12525.00
957.11	12814.00
957.53	12437.00
957.96	12109.00
958.39	12169.00
958.82	11663.00
959.25	11962.00
959.68	12692.00
960.11	12775.00
960.54	13004.00
960.97	13724.00
961.40	14196.00
961.83	14066.00
962.26	14174.00
962.68	15373.00
963.11	15616.00
963.54	15719.00
963.97	15867.00
964.40	15717.00
964.83	16133.00
965.26	16312.00
965.69	16023.00
966.11	15838.00
966.54	15930.00
966.97	16603.00
967.40	16939.00
967.83	16822.00
968.26	16875.00
968.69	17085.00
969.11	17204.00
969.54	17115.00
969.97	17307.00
970.40	17722.00
970.83	17667.00
971.26	17910.00
971.68	17938.00
972.11	17911.00
972.54	18218.00
972.97	18134.00
973.40	17742.00
973.82	17583.00
974.25	17634.00
974.68	17401.00
975.11	17202.00
975.54	16780.00
975.96	16401.00
976.39	16581.00
976.82	16746.00
977.25	16561.00
977.67	16494.00
978.10	16803.00
978.53	16927.00
978.96	17304.00
979.38	17668.00
979.81	17986.00
980.24	18608.00
980.67	18785.00
981.09	19165.00
981.52	19160.00
981.95	19381.00
982.38	19353.00
982.80	19555.00
983.23	19750.00
983.66	19872.00
984.08	19437.00
984.51	19279.00
984.94	19135.00
985.37	18914.00
985.79	18564.00
986.22	18180.00
986.65	18008.00
987.07	17690.00
987.50	17947.00
987.93	17824.00
988.35	17829.00
988.78	18103.00
989.21	18266.00
989.63	18652.00
990.06	18853.00
990.49	19188.00
990.91	19377.00
991.34	19642.00
991.77	19631.00
992.19	19499.00
992.62	19524.00
993.05	19456.00
993.47	19180.00
993.90	18881.00
994.32	18556.00
994.75	18268.00
995.18	17907.00
995.60	17844.00
996.03	17481.00
996.45	17382.00
996.88	17279.00
997.31	17302.00
997.73	17183.00
998.16	17403.00
998.58	17461.00
999.01	17539.00
999.44	17816.00
999.86	17962.00
1000.29	18002.00
1000.71	18090.00
1001.14	18313.00
1001.56	18224.00
1001.99	17999.00
1002.41	17652.00
1002.84	17307.00
1003.27	16977.00
1003.69	16698.00
1004.12	16296.00
1004.54	16053.00
1004.97	15625.00
1005.39	15615.00
1005.82	15458.00
1006.24	15555.00
1006.67	15510.00
1007.09	15369.00
1007.52	15410.00
1007.94	15410.00
1008.37	15520.00
1008.79	15590.00
1009.22	15545.00
1009.64	15609.00
1010.07	15613.00
1010.49	15632.00
1010.92	15737.00
1011.34	15826.00
1011.77	15843.00
1012.19	15765.00
1012.62	15567.00
1013.04	15297.00
1013.46	15088.00
1013.89	14648.00
1014.31	14445.00
1014.74	14214.00
1015.16	14036.00
1015.59	13984.00
1016.01	13996.00
1016.44	14051.00
1016.86	14974.00
1017.28	14103.00
1017.71	14249.00
1018.13	14464.00
1018.56	14534.00
1018.98	14622.00
1019.40	14657.00
1019.83	14758.00
1020.25	14805.00
1020.68	15129.00
1021.10	15057.00
1021.52	15109.00
1021.95	15523.00
1022.37	15281.00
1022.79	15090.00
1023.22	15001.00
1023.64	14859.00
1024.07	14723.00
1024.49	14481.00
1024.91	14195.00
1025.34	14107.00
1025.76	14106.00
1026.18	13936.00
1026.61	13706.00
1027.03	13886.00
1027.45	13867.00
1027.88	13923.00
1028.30	13958.00
1028.72	13978.00
1029.15	14218.00
1029.57	14260.00
1029.99	14323.00
1030.41	14229.00
1030.84	14163.00
1031.26	14041.00
1031.68	13953.00
1032.11	13851.00
1032.53	13693.00
1032.95	13444.00
1033.37	13273.00
1033.80	13029.00
1034.22	12943.00
1034.64	12738.00
1035.06	12502.00
1035.49	12501.00
1035.91	12197.00
1036.33	12060.00
1036.75	12074.00
1037.18	11872.00
1037.60	11948.00
1038.02	11892.00
1038.44	11860.00
1038.87	11859.00
1039.29	11922.00
1039.71	11980.00
1040.13	11935.00
1040.55	11954.00
1040.98	11965.00
1041.40	11891.00
1041.82	11799.00
1042.24	11564.00
1042.66	11531.00
1043.09	11310.00
1043.51	11260.00
1043.93	10900.00
1044.35	10749.00
1044.77	10661.00
1045.20	10629.00
1045.62	10347.00
1046.04	10393.00
1046.46	10140.00
1046.88	10078.00
1047.30	9978.00
1047.72	9915.00
1048.15	9875.00
1048.57	9793.00
1048.99	9823.00
1049.41	9769.00
1049.83	9813.00
1050.25	9706.00
1050.67	9746.00
1051.09	9636.00
1051.52	9678.00
1051.94	9461.00
1052.36	9564.00
1052.78	9403.00
1053.20	9342.00
1053.62	9325.00
1054.04	9287.00
1054.46	9089.00
1054.88	9203.00
1055.30	8907.00
1055.72	8799.00
1056.14	8761.00
1056.57	8781.00
1056.99	8441.00
1057.41	8454.00
1057.83	8366.00
1058.25	8182.00
1058.67	8115.00
1059.09	8103.00
1059.51	8028.00
1059.93	7877.00
1060.35	7750.00
1060.77	7868.00
1061.19	7794.00
1061.61	7802.00
1062.03	7684.00
1062.45	7627.00
1062.87	7628.00
1063.29	7673.00
1063.71	7573.00
1064.13	7534.00
1064.55	7518.00
1064.97	7497.00
1065.39	7378.00
1065.81	7377.00
1066.23	7319.00
1066.65	7217.00
1067.07	7229.00
1067.49	7053.00
1067.91	6915.00
1068.33	6816.00
1068.75	6982.00
1069.17	6856.00
1069.59	6824.00
1070.00	6669.00
1070.42	6726.00
1070.84	6631.00
1071.26	6548.00
1071.68	6488.00
1072.10	6562.00
1072.52	6488.00
1072.94	6464.00
1073.36	6449.00
1073.78	6351.00
1074.20	6402.00
1074.62	6355.00
1075.03	6371.00
1075.45	6262.00
1075.87	6318.00
1076.29	6286.00
1076.71	6288.00
1077.13	6294.00
1077.55	6117.00
1077.97	6036.00
1078.38	6068.00
1078.80	5946.00
1079.22	6005.00
1079.64	5906.00
1080.06	5843.00
1080.48	5827.00
1080.89	5655.00
1081.31	5643.00
1081.73	5662.00
1082.15	5530.00
1082.57	5583.00
1082.99	5552.00
1083.40	5415.00
1083.82	5565.00
1084.24	5428.00
1084.66	5431.00
1085.08	5385.00
1085.49	5295.00
1085.91	5447.00
1086.33	6409.00
1086.75	5342.00
1087.17	5339.00
1087.58	5319.00
1088.00	5256.00
1088.42	5323.00
1088.84	5222.00
1089.25	5201.00
1089.67	5106.00
1090.09	5089.00
1090.51	5002.00
1090.92	4983.00
1091.34	4889.00
1091.76	4875.00
1092.18	4786.00
1092.59	4739.00
1093.01	4796.00
1093.43	4725.00
1093.84	4688.00
1094.26	4649.00
1094.68	4646.00
1095.10	4614.00
1095.51	4570.00
1095.93	4573.00
1096.35	4536.00
1096.76	4538.00
1097.18	4491.00
1097.60	4485.00
1098.01	4481.00
1098.43	4385.00
1098.85	4382.00
1099.26	4304.00
1099.68	4322.00
1100.10	4204.00
1100.51	4195.00
1100.93	4152.00
1101.35	4159.00
1101.76	4188.00
1102.18	4470.00
1102.60	4094.00
1103.01	3979.00
1103.43	4018.00
1103.84	4036.00
1104.26	3967.00
1104.68	3995.00
1105.09	3902.00
1105.51	3906.00
1105.92	3966.00
1106.34	3883.00
1106.76	3822.00
1107.17	3796.00
1107.59	3783.00
1108.00	3667.00
1108.42	3708.00
1108.83	3661.00
1109.25	3626.00
1109.67	3639.00
1110.08	3596.00
1110.50	3580.00
1110.91	3552.00
1111.33	3475.00
1111.74	3475.00
1112.16	3468.00
1112.57	3451.00
1112.99	3383.00
1113.41	3376.00
1113.82	3334.00
1114.24	3319.00
1114.65	3219.00
1115.07	3131.00
1115.48	3074.00
1115.90	2179.00
1116.31	2203.00
1116.73	2203.00
1117.14	2200.00
>>>>>End Processed Spectral Data<<<<<
