SpectraSuite Data File
++++++++++++++++++++++++++++++++++++
Date: Tue May 29 13:10:57 EEST 2018
User: CanSEE
Dark Spectrum Present: No
Reference Spectrum Present: No
Number of Sampled Component Spectra: 1
Spectrometers: MAYP11278
Integration Time (usec): 230000 (MAYP11278)
Spectra Averaged: 1 (MAYP11278)
Boxcar Smoothing: 0 (MAYP11278)
Correct for Electrical Dark: No (MAYP11278)
Strobe/Lamp Enabled: No (MAYP11278)
Correct for Detector Non-linearity: No (MAYP11278)
Correct for Stray Light: No (MAYP11278)
Number of Pixels in Processed Spectrum: 2068
>>>>>Begin Processed Spectral Data<<<<<
187.82	2335.00
188.30	2227.00
188.78	2211.00
189.26	2213.00
189.73	3228.00
190.21	3329.00
190.69	3410.00
191.17	3419.00
191.64	3503.00
192.12	3429.00
192.60	3407.00
193.07	3384.00
193.55	3439.00
194.03	3425.00
194.51	3439.00
194.98	3407.00
195.46	3433.00
195.94	3444.00
196.42	3421.00
196.89	3537.00
197.37	3412.00
197.85	3377.00
198.32	3401.00
198.80	3397.00
199.28	3437.00
199.76	3467.00
200.23	3417.00
200.71	3422.00
201.19	3459.00
201.66	3440.00
202.14	3463.00
202.62	3384.00
203.09	3438.00
203.57	3416.00
204.05	3458.00
204.53	3544.00
205.00	3409.00
205.48	3435.00
205.96	3487.00
206.43	3382.00
206.91	3427.00
207.39	3543.00
207.86	3435.00
208.34	3445.00
208.82	3438.00
209.29	3473.00
209.77	3426.00
210.25	3452.00
210.72	3407.00
211.20	3485.00
211.68	3447.00
212.15	3385.00
212.63	3515.00
213.11	3452.00
213.58	3416.00
214.06	3500.00
214.53	3433.00
215.01	3507.00
215.49	3470.00
215.96	3439.00
216.44	3465.00
216.92	3463.00
217.39	3396.00
217.87	3432.00
218.35	3536.00
218.82	3405.00
219.30	3455.00
219.77	3443.00
220.25	3451.00
220.73	3535.00
221.20	3393.00
221.68	3497.00
222.15	3413.00
222.63	3515.00
223.11	3439.00
223.58	3449.00
224.06	3484.00
224.53	3459.00
225.01	3429.00
225.49	3447.00
225.96	3417.00
226.44	3448.00
226.91	3508.00
227.39	3423.00
227.87	3481.00
228.34	3463.00
228.82	3461.00
229.29	3454.00
229.77	3460.00
230.24	3432.00
230.72	3496.00
231.20	3483.00
231.67	3462.00
232.15	3423.00
232.62	3389.00
233.10	3468.00
233.57	3471.00
234.05	3602.00
234.53	3477.00
235.00	3431.00
235.48	3454.00
235.95	3454.00
236.43	3471.00
236.90	3519.00
237.38	3447.00
237.85	3407.00
238.33	3431.00
238.80	3462.00
239.28	3449.00
239.75	3404.00
240.23	3495.00
240.71	3505.00
241.18	3421.00
241.66	3428.00
242.13	3464.00
242.61	3507.00
243.08	3411.00
243.56	3443.00
244.03	3484.00
244.51	3513.00
244.98	3434.00
245.46	3531.00
245.93	5103.00
246.41	3375.00
246.88	3462.00
247.36	3460.00
247.83	3463.00
248.31	3472.00
248.78	3407.00
249.26	3447.00
249.73	3506.00
250.21	3482.00
250.68	3531.00
251.16	3450.00
251.63	3540.00
252.10	3512.00
252.58	3456.00
253.05	3519.00
253.53	3497.00
254.00	3466.00
254.48	3455.00
254.95	3509.00
255.43	3514.00
255.90	3455.00
256.38	3494.00
256.85	3501.00
257.33	3526.00
257.80	3558.00
258.27	3450.00
258.75	3413.00
259.22	3457.00
259.70	3477.00
260.17	3550.00
260.65	3447.00
261.12	3433.00
261.59	3541.00
262.07	3433.00
262.54	3473.00
263.02	3496.00
263.49	3423.00
263.97	3487.00
264.44	3547.00
264.91	3430.00
265.39	3481.00
265.86	3490.00
266.34	3491.00
266.81	3494.00
267.28	3455.00
267.76	3469.00
268.23	3462.00
268.71	3399.00
269.18	3393.00
269.65	3422.00
270.13	3489.00
270.60	3491.00
271.08	3445.00
271.55	3476.00
272.02	3411.00
272.50	3433.00
272.97	3397.00
273.44	3471.00
273.92	3628.00
274.39	3482.00
274.87	3478.00
275.34	3425.00
275.81	3424.00
276.29	3459.00
276.76	3491.00
277.23	3355.00
277.71	3351.00
278.18	3369.00
278.65	3552.00
279.13	3382.00
279.60	3433.00
280.07	3717.00
280.55	3696.00
281.02	3760.00
281.50	3577.00
281.97	3605.00
282.44	3508.00
282.91	3534.00
283.39	3508.00
283.86	3456.00
284.33	3446.00
284.81	3541.00
285.28	3490.00
285.75	3493.00
286.23	3517.00
286.70	3461.00
287.17	3470.00
287.65	3552.00
288.12	3468.00
288.59	3502.00
289.07	3415.00
289.54	3511.00
290.01	3476.00
290.48	3482.00
290.96	3461.00
291.43	3506.00
291.90	3566.00
292.38	3435.00
292.85	3510.00
293.32	3472.00
293.79	3515.00
294.27	3514.00
294.74	3449.00
295.21	3475.00
295.69	3506.00
296.16	3579.00
296.63	3550.00
297.10	3524.00
297.58	3529.00
298.05	3502.00
298.52	3505.00
298.99	3538.00
299.47	3459.00
299.94	3470.00
300.41	3479.00
300.88	3522.00
301.36	3496.00
301.83	3505.00
302.30	3446.00
302.77	3527.00
303.25	3532.00
303.72	3458.00
304.19	3480.00
304.66	3451.00
305.13	3497.00
305.61	3481.00
306.08	3504.00
306.55	3534.00
307.02	3487.00
307.49	3470.00
307.97	3511.00
308.44	3507.00
308.91	3540.00
309.38	3550.00
309.86	3481.00
310.33	3492.00
310.80	3494.00
311.27	3468.00
311.74	3580.00
312.21	3479.00
312.69	3613.00
313.16	3461.00
313.63	3498.00
314.10	3512.00
314.57	3469.00
315.05	3448.00
315.52	3534.00
315.99	3531.00
316.46	3517.00
316.93	3539.00
317.40	3505.00
317.88	3644.00
318.35	3520.00
318.82	3475.00
319.29	3454.00
319.76	3552.00
320.23	3546.00
320.70	3505.00
321.18	3500.00
321.65	3417.00
322.12	3449.00
322.59	3587.00
323.06	3481.00
323.53	3624.00
324.00	3487.00
324.48	3539.00
324.95	3527.00
325.42	3509.00
325.89	3507.00
326.36	3528.00
326.83	3509.00
327.30	3528.00
327.77	3533.00
328.24	3537.00
328.72	3504.00
329.19	3508.00
329.66	3469.00
330.13	3530.00
330.60	3565.00
331.07	3541.00
331.54	3653.00
332.01	3491.00
332.48	3645.00
332.95	3589.00
333.43	3573.00
333.90	3574.00
334.37	3562.00
334.84	3570.00
335.31	3736.00
335.78	3495.00
336.25	3488.00
336.72	3532.00
337.19	3517.00
337.66	3530.00
338.13	3486.00
338.60	3583.00
339.07	3597.00
339.54	3494.00
340.01	3465.00
340.49	3503.00
340.96	3551.00
341.43	3608.00
341.90	3495.00
342.37	3502.00
342.84	3547.00
343.31	3512.00
343.78	3497.00
344.25	3522.00
344.72	3535.00
345.19	3507.00
345.66	3551.00
346.13	3510.00
346.60	3527.00
347.07	3554.00
347.54	3492.00
348.01	3546.00
348.48	3496.00
348.95	3458.00
349.42	3518.00
349.89	3561.00
350.36	3525.00
350.83	3500.00
351.30	3566.00
351.77	3634.00
352.24	3559.00
352.71	3483.00
353.18	3564.00
353.65	3570.00
354.12	3519.00
354.59	3581.00
355.06	3537.00
355.53	3597.00
356.00	3489.00
356.47	3620.00
356.94	3456.00
357.41	3633.00
357.88	3590.00
358.35	3507.00
358.82	3507.00
359.28	3486.00
359.75	3525.00
360.22	3580.00
360.69	3593.00
361.16	3535.00
361.63	3509.00
362.10	3544.00
362.57	3539.00
363.04	3509.00
363.51	3675.00
363.98	3584.00
364.45	3509.00
364.92	3552.00
365.39	3514.00
365.86	3502.00
366.32	3548.00
366.79	3520.00
367.26	4431.00
367.73	3891.00
368.20	3489.00
368.67	3567.00
369.14	3517.00
369.61	3594.00
370.08	3551.00
370.55	3505.00
371.02	4352.00
371.48	3502.00
371.95	3546.00
372.42	3456.00
372.89	3508.00
373.36	3542.00
373.83	3457.00
374.30	3461.00
374.77	3534.00
375.23	3452.00
375.70	3559.00
376.17	3520.00
376.64	3516.00
377.11	3511.00
377.58	3516.00
378.05	3529.00
378.51	3532.00
378.98	3529.00
379.45	3545.00
379.92	3569.00
380.39	3654.00
380.86	3529.00
381.33	3602.00
381.79	3607.00
382.26	3425.00
382.73	3559.00
383.20	3561.00
383.67	3591.00
384.14	3518.00
384.60	3717.00
385.07	3585.00
385.54	3526.00
386.01	3509.00
386.48	3623.00
386.94	3467.00
387.41	3493.00
387.88	3537.00
388.35	3580.00
388.82	3599.00
389.28	3501.00
389.75	3551.00
390.22	3577.00
390.69	3549.00
391.16	3559.00
391.62	3543.00
392.09	3545.00
392.56	3467.00
393.03	3523.00
393.50	3643.00
393.96	3496.00
394.43	3613.00
394.90	3513.00
395.37	3606.00
395.83	3720.00
396.30	3478.00
396.77	3562.00
397.24	3605.00
397.70	3509.00
398.17	3519.00
398.64	3509.00
399.11	3505.00
399.57	3566.00
400.04	3467.00
400.51	3530.00
400.98	3545.00
401.44	3583.00
401.91	3549.00
402.38	3562.00
402.84	3531.00
403.31	3606.00
403.78	3563.00
404.25	3616.00
404.71	3631.00
405.18	3595.00
405.65	3538.00
406.12	3583.00
406.58	3544.00
407.05	3625.00
407.52	3548.00
407.98	4053.00
408.45	3565.00
408.92	3519.00
409.38	3615.00
409.85	3507.00
410.32	3633.00
410.78	3513.00
411.25	3615.00
411.72	3553.00
412.18	3516.00
412.65	3584.00
413.12	3549.00
413.59	3572.00
414.05	3583.00
414.52	3675.00
414.98	3590.00
415.45	3631.00
415.92	3627.00
416.38	3603.00
416.85	3669.00
417.32	3580.00
417.78	3531.00
418.25	3607.00
418.72	3561.00
419.18	3656.00
419.65	3560.00
420.12	3629.00
420.58	3553.00
421.05	3569.00
421.51	3595.00
421.98	3665.00
422.45	3565.00
422.91	3607.00
423.38	3651.00
423.85	3718.00
424.31	3621.00
424.78	3710.00
425.24	3608.00
425.71	3735.00
426.18	3603.00
426.64	3691.00
427.11	3701.00
427.57	3670.00
428.04	3598.00
428.51	3693.00
428.97	3627.00
429.44	3625.00
429.90	3641.00
430.37	3767.00
430.83	3573.00
431.30	3642.00
431.77	3734.00
432.23	3757.00
432.70	3683.00
433.16	3643.00
433.63	3683.00
434.09	3670.00
434.56	3711.00
435.03	3651.00
435.49	3679.00
435.96	3701.00
436.42	3679.00
436.89	3712.00
437.35	3669.00
437.82	3685.00
438.28	3647.00
438.75	3669.00
439.21	3861.00
439.68	3748.00
440.14	3736.00
440.61	3754.00
441.07	3658.00
441.54	3714.00
442.00	3860.00
442.47	3640.00
442.94	3747.00
443.40	3714.00
443.87	3714.00
444.33	3817.00
444.80	3795.00
445.26	3749.00
445.73	3758.00
446.19	3769.00
446.65	3722.00
447.12	3755.00
447.58	3733.00
448.05	3738.00
448.51	3786.00
448.98	3813.00
449.44	3762.00
449.91	3706.00
450.37	3747.00
450.84	3788.00
451.30	3776.00
451.77	3822.00
452.23	3740.00
452.70	3833.00
453.16	3729.00
453.62	3756.00
454.09	3770.00
454.55	3791.00
455.02	3783.00
455.48	3785.00
455.95	3807.00
456.41	3743.00
456.88	3794.00
457.34	3774.00
457.80	3772.00
458.27	3717.00
458.73	3753.00
459.20	3785.00
459.66	3820.00
460.13	3744.00
460.59	3736.00
461.05	3791.00
461.52	3787.00
461.98	3713.00
462.45	3707.00
462.91	3761.00
463.37	3719.00
463.84	3735.00
464.30	3724.00
464.76	3683.00
465.23	3669.00
465.69	3760.00
466.16	3739.00
466.62	3714.00
467.08	3705.00
467.55	3685.00
468.01	3716.00
468.48	3728.00
468.94	3712.00
469.40	3681.00
469.87	3682.00
470.33	3701.00
470.79	3670.00
471.26	3597.00
471.72	3639.00
472.18	3681.00
472.65	3707.00
473.11	3751.00
473.57	3671.00
474.04	3646.00
474.50	3685.00
474.96	3625.00
475.43	3693.00
475.89	3640.00
476.35	3705.00
476.82	3674.00
477.28	3689.00
477.74	3757.00
478.21	3664.00
478.67	3712.00
479.13	3632.00
479.59	3750.00
480.06	3681.00
480.52	3656.00
480.98	3617.00
481.45	3663.00
481.91	3702.00
482.37	3627.00
482.84	3605.00
483.30	3592.00
483.76	3665.00
484.22	3712.00
484.69	3647.00
485.15	3625.00
485.61	3519.00
486.07	3556.00
486.54	3553.00
487.00	3655.00
487.46	3590.00
487.92	3581.00
488.39	3639.00
488.85	3667.00
489.31	3664.00
489.77	3701.00
490.24	3619.00
490.70	3664.00
491.16	3633.00
491.62	3631.00
492.09	3591.00
492.55	3700.00
493.01	3712.00
493.47	3673.00
493.94	3665.00
494.40	3681.00
494.86	3688.00
495.32	3669.00
495.78	3711.00
496.25	3667.00
496.71	3712.00
497.17	3753.00
497.63	3726.00
498.09	3659.00
498.56	3771.00
499.02	3767.00
499.48	3834.00
499.94	3723.00
500.40	3677.00
500.87	3721.00
501.33	3743.00
501.79	3763.00
502.25	3749.00
502.71	4059.00
503.17	3750.00
503.64	3816.00
504.10	3755.00
504.56	3849.00
505.02	3848.00
505.48	3837.00
505.94	3881.00
506.40	3932.00
506.87	3917.00
507.33	3927.00
507.79	3895.00
508.25	3897.00
508.71	3943.00
509.17	3935.00
509.63	4026.00
510.10	3999.00
510.56	3965.00
511.02	4037.00
511.48	4133.00
511.94	4052.00
512.40	4003.00
512.86	4044.00
513.32	4138.00
513.78	4041.00
514.25	4233.00
514.71	4829.00
515.17	4190.00
515.63	4283.00
516.09	4242.00
516.55	4201.00
517.01	4300.00
517.47	4293.00
517.93	4288.00
518.39	4512.00
518.85	4349.00
519.32	4463.00
519.78	4451.00
520.24	4589.00
520.70	4612.00
521.16	4625.00
521.62	4717.00
522.08	4701.00
522.54	4746.00
523.00	4827.00
523.46	4864.00
523.92	4843.00
524.38	5043.00
524.84	4951.00
525.30	5000.00
525.76	5045.00
526.22	4901.00
526.68	4875.00
527.14	5034.00
527.60	5080.00
528.06	5254.00
528.52	5279.00
528.98	5271.00
529.44	5253.00
529.90	5316.00
530.36	5387.00
530.82	5371.00
531.28	5444.00
531.74	5375.00
532.20	5369.00
532.66	5336.00
533.12	5419.00
533.58	5457.00
534.04	5383.00
534.50	5461.00
534.96	5487.00
535.42	5587.00
535.88	5567.00
536.34	5549.00
536.80	5513.00
537.26	5617.00
537.72	5597.00
538.18	5613.00
538.64	5648.00
539.10	5614.00
539.56	5898.00
540.02	5577.00
540.48	5641.00
540.94	5561.00
541.40	5647.00
541.86	5741.00
542.32	5744.00
542.78	5648.00
543.24	5884.00
543.69	5739.00
544.15	5883.00
544.61	5871.00
545.07	5767.00
545.53	5782.00
545.99	5863.00
546.45	5838.00
546.91	5886.00
547.37	5769.00
547.83	5811.00
548.29	5799.00
548.74	5839.00
549.20	5895.00
549.66	6073.00
550.12	5854.00
550.58	5815.00
551.04	5921.00
551.50	5929.00
551.96	6066.00
552.42	5917.00
552.87	5855.00
553.33	5932.00
553.79	5964.00
554.25	5949.00
554.71	5919.00
555.17	6017.00
555.63	5988.00
556.08	5967.00
556.54	5949.00
557.00	5799.00
557.46	5907.00
557.92	5911.00
558.38	5741.00
558.83	5702.00
559.29	5760.00
559.75	5709.00
560.21	5816.00
560.67	5932.00
561.13	5845.00
561.58	5703.00
562.04	5786.00
562.50	5719.00
562.96	5772.00
563.42	5765.00
563.87	5647.00
564.33	5735.00
564.79	5735.00
565.25	5641.00
565.71	5529.00
566.16	5603.00
566.62	5589.00
567.08	5612.00
567.54	5582.00
568.00	5582.00
568.45	5428.00
568.91	5464.00
569.37	5477.00
569.83	5453.00
570.28	5358.00
570.74	5282.00
571.20	5340.00
571.66	5322.00
572.11	5309.00
572.57	5373.00
573.03	5241.00
573.49	5200.00
573.94	5241.00
574.40	5315.00
574.86	5296.00
575.32	5099.00
575.77	5137.00
576.23	5056.00
576.69	5167.00
577.15	5055.00
577.60	5113.00
578.06	5014.00
578.52	5080.00
578.97	5091.00
579.43	5015.00
579.89	5008.00
580.34	5005.00
580.80	5002.00
581.26	5021.00
581.72	4959.00
582.17	4999.00
582.63	4929.00
583.09	4976.00
583.54	4995.00
584.00	4964.00
584.46	4953.00
584.91	4939.00
585.37	5011.00
585.83	4851.00
586.28	4877.00
586.74	4896.00
587.20	4877.00
587.65	4887.00
588.11	4728.00
588.57	4683.00
589.02	4647.00
589.48	4609.00
589.94	4737.00
590.39	4786.00
590.85	4744.00
591.30	4778.00
591.76	4757.00
592.22	4718.00
592.67	4733.00
593.13	4743.00
593.59	4731.00
594.04	4693.00
594.50	4741.00
594.95	4736.00
595.41	4711.00
595.87	4670.00
596.32	4754.00
596.78	4732.00
597.23	4711.00
597.69	4717.00
598.15	4660.00
598.60	4652.00
599.06	4764.00
599.51	4677.00
599.97	4754.00
600.43	4723.00
600.88	4661.00
601.34	4661.00
601.79	4657.00
602.25	4779.00
602.70	4598.00
603.16	4724.00
603.61	4639.00
604.07	4589.00
604.53	4673.00
604.98	4636.00
605.44	4622.00
605.89	4599.00
606.35	4559.00
606.80	4583.00
607.26	4593.00
607.71	4554.00
608.17	4523.00
608.62	4560.00
609.08	4608.00
609.53	4570.00
609.99	4458.00
610.44	4473.00
610.90	4564.00
611.35	4433.00
611.81	4534.00
612.26	4529.00
612.72	4460.00
613.17	4542.00
613.63	4362.00
614.08	4403.00
614.54	4401.00
614.99	4364.00
615.45	4376.00
615.90	4339.00
616.36	4298.00
616.81	4340.00
617.27	4336.00
617.72	4357.00
618.18	4317.00
618.63	4267.00
619.09	4310.00
619.54	4402.00
619.99	4349.00
620.45	4321.00
620.90	4379.00
621.36	4283.00
621.81	4387.00
622.27	4315.00
622.72	4347.00
623.18	4283.00
623.63	4245.00
624.08	4324.00
624.54	4224.00
624.99	4273.00
625.45	4255.00
625.90	4238.00
626.35	4234.00
626.81	4217.00
627.26	4190.00
627.72	4210.00
628.17	4223.00
628.62	4173.00
629.08	4241.00
629.53	4265.00
629.99	4171.00
630.44	4232.00
630.89	4235.00
631.35	4266.00
631.80	4278.00
632.26	4223.00
632.71	4187.00
633.16	4168.00
633.62	4194.00
634.07	4165.00
634.52	4189.00
634.98	4225.00
635.43	4182.00
635.88	4111.00
636.34	4155.00
636.79	4171.00
637.24	4166.00
637.70	4238.00
638.15	4240.00
638.60	4154.00
639.06	4171.00
639.51	4063.00
639.96	4077.00
640.42	4123.00
640.87	4173.00
641.32	4034.00
641.78	4079.00
642.23	4073.00
642.68	4010.00
643.14	4000.00
643.59	4071.00
644.04	4008.00
644.49	3995.00
644.95	3976.00
645.40	3936.00
645.85	3996.00
646.31	3968.00
646.76	3948.00
647.21	3947.00
647.66	3901.00
648.12	3879.00
648.57	3859.00
649.02	3916.00
649.47	3891.00
649.93	4014.00
650.38	3843.00
650.83	3823.00
651.28	3825.00
651.74	3822.00
652.19	3802.00
652.64	3872.00
653.09	3799.00
653.55	3797.00
654.00	3883.00
654.45	3833.00
654.90	3781.00
655.35	3784.00
655.81	3793.00
656.26	3665.00
656.71	3743.00
657.16	3799.00
657.62	3828.00
658.07	3732.00
658.52	3807.00
658.97	3690.00
659.42	3964.00
659.88	3716.00
660.33	3814.00
660.78	3714.00
661.23	3722.00
661.68	3746.00
662.13	3709.00
662.59	3611.00
663.04	3737.00
663.49	3655.00
663.94	3671.00
664.39	3677.00
664.84	3621.00
665.30	3671.00
665.75	3576.00
666.20	3647.00
666.65	3649.00
667.10	3772.00
667.55	3674.00
668.00	3568.00
668.46	3645.00
668.91	3615.00
669.36	3691.00
669.81	3533.00
670.26	3555.00
670.71	3637.00
671.16	3601.00
671.61	3677.00
672.06	3681.00
672.52	3597.00
672.97	3578.00
673.42	3675.00
673.87	3714.00
674.32	3600.00
674.77	3595.00
675.22	3541.00
675.67	3539.00
676.12	3582.00
676.57	3542.00
677.02	3585.00
677.47	3540.00
677.93	3703.00
678.38	3542.00
678.83	3576.00
679.28	3594.00
679.73	3553.00
680.18	3563.00
680.63	3589.00
681.08	3528.00
681.53	3511.00
681.98	3573.00
682.43	3602.00
682.88	3651.00
683.33	3612.00
683.78	3570.00
684.23	3665.00
684.68	3639.00
685.13	3630.00
685.58	3685.00
686.03	3648.00
686.48	3592.00
686.93	3594.00
687.38	3576.00
687.83	3640.00
688.28	3661.00
688.73	3825.00
689.18	3809.00
689.63	3711.00
690.08	3792.00
690.53	3821.00
690.98	3867.00
691.43	3908.00
691.88	3934.00
692.33	4026.00
692.78	4056.00
693.23	4155.00
693.68	4230.00
694.13	4207.00
694.58	4249.00
695.03	4527.00
695.48	4453.00
695.93	4510.00
696.38	4690.00
696.83	4669.00
697.28	4703.00
697.72	4824.00
698.17	4811.00
698.62	4893.00
699.07	5008.00
699.52	4969.00
699.97	5111.00
700.42	5213.00
700.87	5261.00
701.32	5514.00
701.77	5335.00
702.22	5499.00
702.67	5426.00
703.11	5606.00
703.56	5738.00
704.01	5762.00
704.46	5949.00
704.91	6028.00
705.36	6056.00
705.81	6146.00
706.26	6073.00
706.70	6271.00
707.15	6319.00
707.60	6373.00
708.05	6499.00
708.50	6603.00
708.95	6594.00
709.40	6598.00
709.84	6775.00
710.29	6831.00
710.74	6858.00
711.19	6920.00
711.64	6983.00
712.09	6983.00
712.53	7078.00
712.98	7207.00
713.43	7312.00
713.88	7395.00
714.33	7403.00
714.78	7339.00
715.22	7329.00
715.67	7396.00
716.12	7368.00
716.57	7102.00
717.02	6907.00
717.46	6838.00
717.91	6886.00
718.36	6843.00
718.81	6729.00
719.26	6760.00
719.70	6925.00
720.15	6890.00
720.60	7122.00
721.05	7561.00
721.49	7741.00
721.94	7900.00
722.39	7926.00
722.84	7722.00
723.28	7509.00
723.73	7485.00
724.18	7486.00
724.63	7539.00
725.07	7663.00
725.52	7736.00
725.97	7849.00
726.42	7858.00
726.86	8079.00
727.31	7834.00
727.76	7969.00
728.21	8148.00
728.65	8093.00
729.10	8105.00
729.55	8295.00
729.99	8373.00
730.44	8329.00
730.89	8569.00
731.33	8559.00
731.78	8775.00
732.23	8941.00
732.68	9071.00
733.12	9186.00
733.57	9269.00
734.02	9400.00
734.46	9497.00
734.91	9485.00
735.36	9617.00
735.80	9701.00
736.25	9535.00
736.70	9674.00
737.14	9867.00
737.59	9933.00
738.04	9811.00
738.48	9737.00
738.93	9738.00
739.37	9899.00
739.82	10186.00
740.27	10119.00
740.71	10087.00
741.16	10166.00
741.61	10267.00
742.05	10244.00
742.50	10397.00
742.94	10248.00
743.39	10306.00
743.84	10334.00
744.28	10385.00
744.73	10418.00
745.18	10511.00
745.62	10605.00
746.07	10618.00
746.51	10463.00
746.96	10424.00
747.40	10473.00
747.85	10601.00
748.30	10501.00
748.74	10469.00
749.19	10477.00
749.63	10652.00
750.08	10619.00
750.52	10505.00
750.97	10556.00
751.42	10535.00
751.86	10554.00
752.31	10511.00
752.75	10595.00
753.20	10488.00
753.64	10499.00
754.09	10459.00
754.53	10495.00
754.98	10495.00
755.42	10523.00
755.87	10509.00
756.31	10458.00
756.76	10413.00
757.20	10459.00
757.65	10292.00
758.09	10255.00
758.54	9963.00
758.98	9146.00
759.43	7660.00
759.87	6103.00
760.32	5358.00
760.76	5203.00
761.21	5895.00
761.65	6604.00
762.10	6842.00
762.54	6562.00
762.99	6371.00
763.43	6520.00
763.88	6759.00
764.32	7100.00
764.77	7470.00
765.21	7932.00
765.66	8233.00
766.10	8570.00
766.54	9022.00
766.99	9325.00
767.43	9509.00
767.88	9819.00
768.32	9895.00
768.77	9917.00
769.21	10203.00
769.66	10213.00
770.10	10386.00
770.54	10373.00
770.99	10323.00
771.43	10428.00
771.88	10365.00
772.32	10291.00
772.76	10219.00
773.21	10387.00
773.65	10321.00
774.10	10253.00
774.54	10186.00
774.98	10232.00
775.43	10455.00
775.87	10343.00
776.31	10395.00
776.76	10438.00
777.20	10413.00
777.65	10309.00
778.09	10285.00
778.53	10327.00
778.98	10229.00
779.42	10215.00
779.86	10279.00
780.31	10203.00
780.75	10327.00
781.19	10317.00
781.64	10349.00
782.08	10391.00
782.52	10185.00
782.97	10159.00
783.41	10161.00
783.85	10137.00
784.30	10097.00
784.74	10007.00
785.18	10031.00
785.63	9959.00
786.07	10012.00
786.51	10075.00
786.95	10018.00
787.40	10027.00
787.84	9919.00
788.28	9900.00
788.73	9887.00
789.17	9770.00
789.61	9730.00
790.05	9716.00
790.50	9626.00
790.94	9610.00
791.38	9623.00
791.82	9635.00
792.27	9646.00
792.71	9668.00
793.15	9871.00
793.59	9693.00
794.04	9646.00
794.48	9552.00
794.92	9575.00
795.36	9419.00
795.81	9425.00
796.25	9312.00
796.69	9366.00
797.13	9509.00
797.57	9562.00
798.02	9655.00
798.46	9690.00
798.90	9547.00
799.34	9438.00
799.79	9482.00
800.23	9279.00
800.67	9247.00
801.11	9232.00
801.55	9211.00
801.99	9105.00
802.44	9293.00
802.88	9388.00
803.32	9347.00
803.76	9352.00
804.20	9378.00
804.64	9381.00
805.09	9444.00
805.53	9463.00
805.97	9383.00
806.41	9164.00
806.85	9157.00
807.29	9100.00
807.74	9087.00
808.18	9050.00
808.62	9008.00
809.06	9001.00
809.50	9077.00
809.94	9081.00
810.38	9109.00
810.82	9092.00
811.27	9137.00
811.71	8846.00
812.15	8689.00
812.59	8563.00
813.03	8539.00
813.47	8195.00
813.91	8090.00
814.35	8046.00
814.79	7997.00
815.23	7976.00
815.67	7736.00
816.12	7857.00
816.56	7739.00
817.00	7863.00
817.44	7894.00
817.88	7963.00
818.32	7784.00
818.76	7866.00
819.20	7859.00
819.64	7867.00
820.08	8079.00
820.52	8081.00
820.96	8207.00
821.40	8110.00
821.84	7985.00
822.28	7577.00
822.72	7591.00
823.16	7546.00
823.60	7849.00
824.04	8210.00
824.48	8320.00
824.92	8375.00
825.36	8298.00
825.80	8236.00
826.24	8165.00
826.68	8034.00
827.12	8122.00
827.56	8043.00
828.00	8039.00
828.44	7931.00
828.88	8089.00
829.32	8120.00
829.76	8140.00
830.20	8369.00
830.64	8163.00
831.08	8270.00
831.52	8082.00
831.96	8047.00
832.40	7890.00
832.84	7958.00
833.28	8028.00
833.72	8196.00
834.16	8281.00
834.60	8449.00
835.04	8405.00
835.48	8635.00
835.91	8509.00
836.35	8479.00
836.79	8492.00
837.23	8516.00
837.67	8380.00
838.11	8336.00
838.55	8394.00
838.99	8257.00
839.43	8398.00
839.87	8591.00
840.30	8618.00
840.74	8703.00
841.18	8690.00
841.62	8628.00
842.06	8663.00
842.50	8635.00
842.94	8649.00
843.38	8605.00
843.81	8313.00
844.25	8406.00
844.69	8261.00
845.13	8439.00
845.57	8403.00
846.01	8375.00
846.45	8395.00
846.88	8452.00
847.32	8608.00
847.76	8638.00
848.20	8546.00
848.64	8583.00
849.08	8437.00
849.51	8568.00
849.95	8365.00
850.39	8283.00
850.83	8445.00
851.27	8360.00
851.70	8351.00
852.14	8299.00
852.58	8119.00
853.02	7935.00
853.46	7771.00
853.89	7793.00
854.33	7844.00
854.77	8022.00
855.21	8323.00
855.65	8582.00
856.08	8680.00
856.52	8626.00
856.96	8603.00
857.40	8480.00
857.83	8283.00
858.27	8265.00
858.71	8142.00
859.15	8139.00
859.58	8170.00
860.02	8180.00
860.46	8394.00
860.89	8507.00
861.33	8423.00
861.77	8545.00
862.21	8582.00
862.64	8519.00
863.08	8628.00
863.52	8587.00
863.95	8336.00
864.39	8366.00
864.83	8115.00
865.27	7815.00
865.70	7797.00
866.14	7731.00
866.58	7763.00
867.01	7902.00
867.45	8159.00
867.89	8266.00
868.32	8428.00
868.76	8501.00
869.20	8484.00
869.63	8659.00
870.07	8492.00
870.51	8238.00
870.94	8166.00
871.38	8096.00
871.82	7873.00
872.25	7929.00
872.69	7885.00
873.13	7960.00
873.56	7961.00
874.00	8087.00
874.43	8112.00
874.87	8259.00
875.31	8334.00
875.74	8256.00
876.18	8367.00
876.61	8399.00
877.05	8307.00
877.49	8307.00
877.92	8199.00
878.36	8102.00
878.79	7979.00
879.23	7841.00
879.67	7764.00
880.10	7664.00
880.54	7813.00
880.97	7735.00
881.41	7975.00
881.84	8066.00
882.28	8106.00
882.72	8348.00
883.15	8319.00
883.59	8333.00
884.02	8315.00
884.46	8255.00
884.89	8377.00
885.33	8131.00
885.76	7946.00
886.20	7892.00
886.63	7790.00
887.07	7677.00
887.50	7751.00
887.94	7705.00
888.37	7756.00
888.81	8012.00
889.24	7872.00
889.68	8055.00
890.11	8025.00
890.55	8091.00
890.98	8132.00
891.42	8146.00
891.85	8120.00
892.29	8027.00
892.72	7887.00
893.16	7703.00
893.59	7556.00
894.03	7428.00
894.46	7334.00
894.90	7091.00
895.33	6891.00
895.77	6994.00
896.20	6899.00
896.63	6839.00
897.07	6918.00
897.50	6846.00
897.94	6920.00
898.37	7120.00
898.81	6756.00
899.24	6711.00
899.68	7033.00
900.11	6911.00
900.54	6779.00
900.98	6723.00
901.41	6731.00
901.85	6889.00
902.28	6739.00
902.71	6816.00
903.15	7063.00
903.58	7139.00
904.02	7161.00
904.45	7129.00
904.88	7063.00
905.32	6973.00
905.75	7085.00
906.18	6884.00
906.62	6974.00
907.05	6806.00
907.48	6777.00
907.92	6773.00
908.35	6849.00
908.79	6681.00
909.22	6606.00
909.65	6582.00
910.09	6585.00
910.52	6697.00
910.95	6586.00
911.38	6573.00
911.82	6407.00
912.25	6576.00
912.68	6641.00
913.12	6588.00
913.55	6565.00
913.98	6671.00
914.42	6773.00
914.85	6926.00
915.28	6692.00
915.72	6755.00
916.15	6638.00
916.58	6713.00
917.01	6533.00
917.45	6358.00
917.88	6509.00
918.31	6638.00
918.74	6820.00
919.18	6880.00
919.61	6836.00
920.04	6884.00
920.47	6988.00
920.91	7053.00
921.34	6922.00
921.77	7019.00
922.20	7056.00
922.64	7017.00
923.07	7101.00
923.50	6971.00
923.93	6865.00
924.37	6844.00
924.80	6693.00
925.23	6805.00
925.66	6617.00
926.09	6362.00
926.53	6295.00
926.96	6074.00
927.39	6041.00
927.82	5794.00
928.25	5679.00
928.69	5647.00
929.12	5576.00
929.55	5447.00
929.98	5313.00
930.41	5161.00
930.84	5052.00
931.28	4836.00
931.71	4750.00
932.14	4543.00
932.57	4608.00
933.00	4361.00
933.43	4335.00
933.86	4222.00
934.30	4145.00
934.73	4364.00
935.16	4191.00
935.59	4131.00
936.02	4203.00
936.45	4225.00
936.88	4191.00
937.31	4359.00
937.75	4393.00
938.18	4493.00
938.61	4641.00
939.04	4667.00
939.47	4603.00
939.90	4575.00
940.33	4519.00
940.76	4280.00
941.19	4306.00
941.62	4235.00
942.05	4226.00
942.48	4111.00
942.91	4061.00
943.35	4086.00
943.78	4066.00
944.21	4100.00
944.64	4139.00
945.07	4203.00
945.50	4136.00
945.93	4232.00
946.36	4307.00
946.79	4293.00
947.22	4394.00
947.65	4373.00
948.08	4192.00
948.51	4328.00
948.94	4354.00
949.37	4437.00
949.80	4333.00
950.23	4285.00
950.66	4401.00
951.09	4405.00
951.52	4241.00
951.95	4359.00
952.38	4329.00
952.81	4570.00
953.24	4507.00
953.67	4583.00
954.10	4530.00
954.53	4597.00
954.96	4601.00
955.39	4621.00
955.82	4733.00
956.25	4727.00
956.68	4851.00
957.11	4762.00
957.53	4797.00
957.96	4721.00
958.39	4620.00
958.82	4553.00
959.25	4656.00
959.68	4685.00
960.11	4801.00
960.54	4856.00
960.97	4991.00
961.40	4981.00
961.83	4960.00
962.26	4969.00
962.68	5173.00
963.11	5229.00
963.54	5225.00
963.97	5239.00
964.40	5221.00
964.83	5369.00
965.26	5317.00
965.69	5316.00
966.11	5332.00
966.54	5293.00
966.97	5516.00
967.40	5494.00
967.83	5670.00
968.26	5529.00
968.69	5463.00
969.11	5582.00
969.54	5509.00
969.97	5516.00
970.40	5617.00
970.83	5551.00
971.26	5618.00
971.68	5621.00
972.11	5576.00
972.54	5698.00
972.97	5681.00
973.40	5638.00
973.82	5612.00
974.25	5639.00
974.68	5607.00
975.11	5524.00
975.54	5410.00
975.96	5461.00
976.39	5475.00
976.82	5471.00
977.25	5427.00
977.67	5459.00
978.10	5383.00
978.53	5381.00
978.96	5547.00
979.38	5628.00
979.81	5576.00
980.24	5675.00
980.67	5822.00
981.09	5848.00
981.52	5892.00
981.95	5838.00
982.38	5854.00
982.80	5920.00
983.23	5991.00
983.66	5986.00
984.08	5873.00
984.51	5865.00
984.94	5893.00
985.37	5807.00
985.79	5781.00
986.22	5671.00
986.65	5717.00
987.07	5664.00
987.50	5669.00
987.93	5580.00
988.35	5703.00
988.78	5665.00
989.21	5672.00
989.63	5786.00
990.06	5778.00
990.49	5861.00
990.91	5983.00
991.34	5917.00
991.77	5918.00
992.19	5920.00
992.62	5855.00
993.05	5884.00
993.47	5913.00
993.90	5889.00
994.32	5824.00
994.75	5758.00
995.18	5627.00
995.60	5637.00
996.03	5558.00
996.45	5595.00
996.88	5589.00
997.31	5581.00
997.73	5578.00
998.16	5485.00
998.58	5639.00
999.01	5637.00
999.44	5653.00
999.86	5768.00
1000.29	5681.00
1000.71	5721.00
1001.14	5790.00
1001.56	5713.00
1001.99	5768.00
1002.41	5661.00
1002.84	5609.00
1003.27	5487.00
1003.69	5544.00
1004.12	5467.00
1004.54	5409.00
1004.97	5342.00
1005.39	5251.00
1005.82	5294.00
1006.24	5289.00
1006.67	5293.00
1007.09	5217.00
1007.52	5258.00
1007.94	5308.00
1008.37	5426.00
1008.79	5329.00
1009.22	5329.00
1009.64	5340.00
1010.07	5302.00
1010.49	5391.00
1010.92	5384.00
1011.34	5377.00
1011.77	5326.00
1012.19	5332.00
1012.62	5256.00
1013.04	5207.00
1013.46	5261.00
1013.89	5096.00
1014.31	5177.00
1014.74	5052.00
1015.16	5132.00
1015.59	5015.00
1016.01	5060.00
1016.44	5025.00
1016.86	5897.00
1017.28	5107.00
1017.71	5025.00
1018.13	5221.00
1018.56	5227.00
1018.98	5213.00
1019.40	5129.00
1019.83	5245.00
1020.25	5195.00
1020.68	5205.00
1021.10	5268.00
1021.52	5277.00
1021.95	5470.00
1022.37	5333.00
1022.79	5280.00
1023.22	5240.00
1023.64	5227.00
1024.07	5211.00
1024.49	5191.00
1024.91	5093.00
1025.34	5105.00
1025.76	5152.00
1026.18	5105.00
1026.61	5038.00
1027.03	5012.00
1027.45	5060.00
1027.88	5005.00
1028.30	5179.00
1028.72	5068.00
1029.15	5093.00
1029.57	5107.00
1029.99	5171.00
1030.41	5116.00
1030.84	5121.00
1031.26	5119.00
1031.68	5041.00
1032.11	5127.00
1032.53	4983.00
1032.95	4957.00
1033.37	4994.00
1033.80	4963.00
1034.22	4869.00
1034.64	5000.00
1035.06	4775.00
1035.49	4775.00
1035.91	4758.00
1036.33	4687.00
1036.75	4787.00
1037.18	4793.00
1037.60	4761.00
1038.02	4763.00
1038.44	4797.00
1038.87	4730.00
1039.29	4680.00
1039.71	4769.00
1040.13	4743.00
1040.55	4816.00
1040.98	4788.00
1041.40	4748.00
1041.82	4744.00
1042.24	4684.00
1042.66	4731.00
1043.09	4594.00
1043.51	4634.00
1043.93	4560.00
1044.35	4493.00
1044.77	4559.00
1045.20	4577.00
1045.62	4439.00
1046.04	4449.00
1046.46	4461.00
1046.88	4353.00
1047.30	4431.00
1047.72	4457.00
1048.15	4476.00
1048.57	4410.00
1048.99	4381.00
1049.41	4456.00
1049.83	4421.00
1050.25	4474.00
1050.67	4407.00
1051.09	4403.00
1051.52	4423.00
1051.94	4253.00
1052.36	4373.00
1052.78	4285.00
1053.20	4326.00
1053.62	4328.00
1054.04	4301.00
1054.46	4301.00
1054.88	4334.00
1055.30	4359.00
1055.72	4266.00
1056.14	4276.00
1056.57	4391.00
1056.99	4147.00
1057.41	4176.00
1057.83	4150.00
1058.25	4110.00
1058.67	4085.00
1059.09	4079.00
1059.51	4107.00
1059.93	4130.00
1060.35	4084.00
1060.77	4139.00
1061.19	4106.00
1061.61	4066.00
1062.03	4023.00
1062.45	4004.00
1062.87	4065.00
1063.29	4071.00
1063.71	4056.00
1064.13	3959.00
1064.55	3943.00
1064.97	4045.00
1065.39	3941.00
1065.81	3984.00
1066.23	3993.00
1066.65	3952.00
1067.07	4121.00
1067.49	3993.00
1067.91	3893.00
1068.33	3921.00
1068.75	3931.00
1069.17	3987.00
1069.59	3974.00
1070.00	3882.00
1070.42	3884.00
1070.84	3852.00
1071.26	3756.00
1071.68	3805.00
1072.10	3861.00
1072.52	3851.00
1072.94	3756.00
1073.36	3802.00
1073.78	3831.00
1074.20	3806.00
1074.62	3795.00
1075.03	3789.00
1075.45	3792.00
1075.87	3877.00
1076.29	3846.00
1076.71	3848.00
1077.13	3863.00
1077.55	3691.00
1077.97	3807.00
1078.38	3745.00
1078.80	3792.00
1079.22	3721.00
1079.64	3755.00
1080.06	3726.00
1080.48	3742.00
1080.89	3690.00
1081.31	3682.00
1081.73	3738.00
1082.15	3656.00
1082.57	3721.00
1082.99	3691.00
1083.40	3661.00
1083.82	3716.00
1084.24	3655.00
1084.66	3643.00
1085.08	3657.00
1085.49	3620.00
1085.91	3708.00
1086.33	4920.00
1086.75	3617.00
1087.17	3653.00
1087.58	3639.00
1088.00	3679.00
1088.42	3696.00
1088.84	3660.00
1089.25	3588.00
1089.67	3643.00
1090.09	3597.00
1090.51	3556.00
1090.92	3647.00
1091.34	3595.00
1091.76	3581.00
1092.18	3553.00
1092.59	3531.00
1093.01	3532.00
1093.43	3547.00
1093.84	3508.00
1094.26	3488.00
1094.68	3495.00
1095.10	3491.00
1095.51	3513.00
1095.93	3490.00
1096.35	3525.00
1096.76	3588.00
1097.18	3521.00
1097.60	3490.00
1098.01	3470.00
1098.43	3427.00
1098.85	3447.00
1099.26	3469.00
1099.68	3506.00
1100.10	3411.00
1100.51	3434.00
1100.93	3456.00
1101.35	3456.00
1101.76	3469.00
1102.18	3930.00
1102.60	3478.00
1103.01	3365.00
1103.43	3435.00
1103.84	3375.00
1104.26	3383.00
1104.68	3422.00
1105.09	3312.00
1105.51	3369.00
1105.92	3408.00
1106.34	3346.00
1106.76	3408.00
1107.17	3399.00
1107.59	3354.00
1108.00	3287.00
1108.42	3333.00
1108.83	3282.00
1109.25	3324.00
1109.67	3293.00
1110.08	3290.00
1110.50	3270.00
1110.91	3295.00
1111.33	3287.00
1111.74	3264.00
1112.16	3302.00
1112.57	3297.00
1112.99	3235.00
1113.41	3273.00
1113.82	3275.00
1114.24	3262.00
1114.65	3284.00
1115.07	3129.00
1115.48	3101.00
1115.90	2188.00
1116.31	2210.00
1116.73	2206.00
1117.14	2210.00
>>>>>End Processed Spectral Data<<<<<
