SpectraSuite Data File
++++++++++++++++++++++++++++++++++++
Date: Tue May 29 13:19:38 EEST 2018
User: CanSEE
Dark Spectrum Present: No
Reference Spectrum Present: No
Number of Sampled Component Spectra: 1
Spectrometers: MAYP11278
Integration Time (usec): 220000 (MAYP11278)
Spectra Averaged: 1 (MAYP11278)
Boxcar Smoothing: 0 (MAYP11278)
Correct for Electrical Dark: No (MAYP11278)
Strobe/Lamp Enabled: No (MAYP11278)
Correct for Detector Non-linearity: No (MAYP11278)
Correct for Stray Light: No (MAYP11278)
Number of Pixels in Processed Spectrum: 2068
>>>>>Begin Processed Spectral Data<<<<<
187.82	2356.00
188.30	2236.00
188.78	2220.00
189.26	2217.00
189.73	3455.00
190.21	3592.00
190.69	3741.00
191.17	3732.00
191.64	3869.00
192.12	3784.00
192.60	3763.00
193.07	3715.00
193.55	3766.00
194.03	3759.00
194.51	3787.00
194.98	3736.00
195.46	3779.00
195.94	3743.00
196.42	3762.00
196.89	3883.00
197.37	3747.00
197.85	3762.00
198.32	3752.00
198.80	3746.00
199.28	3814.00
199.76	3794.00
200.23	3756.00
200.71	3815.00
201.19	3812.00
201.66	3777.00
202.14	3772.00
202.62	3704.00
203.09	3755.00
203.57	3740.00
204.05	3846.00
204.53	3809.00
205.00	3735.00
205.48	3750.00
205.96	3879.00
206.43	3757.00
206.91	3792.00
207.39	3892.00
207.86	3794.00
208.34	3825.00
208.82	3706.00
209.29	3823.00
209.77	3795.00
210.25	3768.00
210.72	3816.00
211.20	3812.00
211.68	3798.00
212.15	3710.00
212.63	3871.00
213.11	3809.00
213.58	3760.00
214.06	3830.00
214.53	3795.00
215.01	3828.00
215.49	3802.00
215.96	3784.00
216.44	3843.00
216.92	3794.00
217.39	3755.00
217.87	3793.00
218.35	3860.00
218.82	3725.00
219.30	3716.00
219.77	3779.00
220.25	3763.00
220.73	3913.00
221.20	3759.00
221.68	3805.00
222.15	3724.00
222.63	3811.00
223.11	3763.00
223.58	3851.00
224.06	3748.00
224.53	3750.00
225.01	3714.00
225.49	3777.00
225.96	3775.00
226.44	3729.00
226.91	3812.00
227.39	3796.00
227.87	3834.00
228.34	3779.00
228.82	3830.00
229.29	3769.00
229.77	3827.00
230.24	3783.00
230.72	3820.00
231.20	3875.00
231.67	3785.00
232.15	3734.00
232.62	3712.00
233.10	3789.00
233.57	3786.00
234.05	3970.00
234.53	3788.00
235.00	3757.00
235.48	3732.00
235.95	3782.00
236.43	3830.00
236.90	3898.00
237.38	3769.00
237.85	3819.00
238.33	3789.00
238.80	3791.00
239.28	3773.00
239.75	3740.00
240.23	3819.00
240.71	3784.00
241.18	3789.00
241.66	3749.00
242.13	3823.00
242.61	3875.00
243.08	3739.00
243.56	3762.00
244.03	3832.00
244.51	3857.00
244.98	3769.00
245.46	3832.00
245.93	5823.00
246.41	3702.00
246.88	3800.00
247.36	3792.00
247.83	3815.00
248.31	3812.00
248.78	3731.00
249.26	3814.00
249.73	3842.00
250.21	3795.00
250.68	3832.00
251.16	3784.00
251.63	3882.00
252.10	3914.00
252.58	3776.00
253.05	3833.00
253.53	3814.00
254.00	3811.00
254.48	3824.00
254.95	3780.00
255.43	3876.00
255.90	3791.00
256.38	3819.00
256.85	3847.00
257.33	3858.00
257.80	3979.00
258.27	3861.00
258.75	3787.00
259.22	3763.00
259.70	3824.00
260.17	3898.00
260.65	3800.00
261.12	3817.00
261.59	3887.00
262.07	3784.00
262.54	3812.00
263.02	3826.00
263.49	3727.00
263.97	3843.00
264.44	3849.00
264.91	3764.00
265.39	3835.00
265.86	3837.00
266.34	3910.00
266.81	3800.00
267.28	3839.00
267.76	3817.00
268.23	3827.00
268.71	3734.00
269.18	3757.00
269.65	3770.00
270.13	3824.00
270.60	3837.00
271.08	3801.00
271.55	3803.00
272.02	3761.00
272.50	3765.00
272.97	3732.00
273.44	3817.00
273.92	3924.00
274.39	3785.00
274.87	3851.00
275.34	3802.00
275.81	3816.00
276.29	3816.00
276.76	3758.00
277.23	3678.00
277.71	3722.00
278.18	3688.00
278.65	3928.00
279.13	3710.00
279.60	3768.00
280.07	4110.00
280.55	4046.00
281.02	4077.00
281.50	3857.00
281.97	3908.00
282.44	3826.00
282.91	3876.00
283.39	3838.00
283.86	3822.00
284.33	3810.00
284.81	3848.00
285.28	3830.00
285.75	3841.00
286.23	3866.00
286.70	3780.00
287.17	3878.00
287.65	3950.00
288.12	3839.00
288.59	3802.00
289.07	3768.00
289.54	3892.00
290.01	3817.00
290.48	3796.00
290.96	3818.00
291.43	3855.00
291.90	3926.00
292.38	3790.00
292.85	3875.00
293.32	3866.00
293.79	3880.00
294.27	3914.00
294.74	3842.00
295.21	3841.00
295.69	3820.00
296.16	3962.00
296.63	3902.00
297.10	3843.00
297.58	3894.00
298.05	3884.00
298.52	3816.00
298.99	3918.00
299.47	3802.00
299.94	3866.00
300.41	3822.00
300.88	3883.00
301.36	3890.00
301.83	3882.00
302.30	3769.00
302.77	3886.00
303.25	3868.00
303.72	3816.00
304.19	3802.00
304.66	3774.00
305.13	3853.00
305.61	3848.00
306.08	3853.00
306.55	3868.00
307.02	3776.00
307.49	3791.00
307.97	3787.00
308.44	3754.00
308.91	3888.00
309.38	3851.00
309.86	3843.00
310.33	3812.00
310.80	3872.00
311.27	3804.00
311.74	3863.00
312.21	3853.00
312.69	3906.00
313.16	3841.00
313.63	3836.00
314.10	3852.00
314.57	3804.00
315.05	3818.00
315.52	3876.00
315.99	3908.00
316.46	3789.00
316.93	3866.00
317.40	3822.00
317.88	3995.00
318.35	3816.00
318.82	3812.00
319.29	3777.00
319.76	3835.00
320.23	3916.00
320.70	3910.00
321.18	3858.00
321.65	3772.00
322.12	3786.00
322.59	3932.00
323.06	3862.00
323.53	3978.00
324.00	3772.00
324.48	3875.00
324.95	3805.00
325.42	3867.00
325.89	3832.00
326.36	3824.00
326.83	3930.00
327.30	3856.00
327.77	3875.00
328.24	3872.00
328.72	3843.00
329.19	3852.00
329.66	3865.00
330.13	3858.00
330.60	3880.00
331.07	3871.00
331.54	3993.00
332.01	3812.00
332.48	3948.00
332.95	3900.00
333.43	3882.00
333.90	3928.00
334.37	3870.00
334.84	3924.00
335.31	4020.00
335.78	3810.00
336.25	3860.00
336.72	3880.00
337.19	3876.00
337.66	3816.00
338.13	3810.00
338.60	3901.00
339.07	3896.00
339.54	3754.00
340.01	3757.00
340.49	3779.00
340.96	3848.00
341.43	3834.00
341.90	3765.00
342.37	3803.00
342.84	3813.00
343.31	3801.00
343.78	3779.00
344.25	3814.00
344.72	3747.00
345.19	3772.00
345.66	3828.00
346.13	3759.00
346.60	3758.00
347.07	3865.00
347.54	3775.00
348.01	3851.00
348.48	3790.00
348.95	3741.00
349.42	3819.00
349.89	3864.00
350.36	3787.00
350.83	3771.00
351.30	3817.00
351.77	3900.00
352.24	3841.00
352.71	3823.00
353.18	3801.00
353.65	3898.00
354.12	3815.00
354.59	3844.00
355.06	3807.00
355.53	3886.00
356.00	3781.00
356.47	3910.00
356.94	3794.00
357.41	3987.00
357.88	3838.00
358.35	3729.00
358.82	3788.00
359.28	3820.00
359.75	3838.00
360.22	3857.00
360.69	3878.00
361.16	3884.00
361.63	3766.00
362.10	3870.00
362.57	3783.00
363.04	3814.00
363.51	3926.00
363.98	3854.00
364.45	3742.00
364.92	3878.00
365.39	3745.00
365.86	3749.00
366.32	3858.00
366.79	3800.00
367.26	4678.00
367.73	4182.00
368.20	3777.00
368.67	3898.00
369.14	3785.00
369.61	3912.00
370.08	3856.00
370.55	3819.00
371.02	4836.00
371.48	3824.00
371.95	3796.00
372.42	3782.00
372.89	3798.00
373.36	3847.00
373.83	3740.00
374.30	3837.00
374.77	3824.00
375.23	3760.00
375.70	3934.00
376.17	3834.00
376.64	3770.00
377.11	3751.00
377.58	3895.00
378.05	3903.00
378.51	3846.00
378.98	3890.00
379.45	3800.00
379.92	3876.00
380.39	3979.00
380.86	3813.00
381.33	3918.00
381.79	3855.00
382.26	3770.00
382.73	3870.00
383.20	3842.00
383.67	3869.00
384.14	3828.00
384.60	4064.00
385.07	3809.00
385.54	3788.00
386.01	3816.00
386.48	3892.00
386.94	3812.00
387.41	3808.00
387.88	3822.00
388.35	3823.00
388.82	3873.00
389.28	3810.00
389.75	3888.00
390.22	3820.00
390.69	3855.00
391.16	3883.00
391.62	3836.00
392.09	3853.00
392.56	3802.00
393.03	3842.00
393.50	3936.00
393.96	3851.00
394.43	3903.00
394.90	3792.00
395.37	3892.00
395.83	4086.00
396.30	3828.00
396.77	3906.00
397.24	3893.00
397.70	3788.00
398.17	3808.00
398.64	3786.00
399.11	3824.00
399.57	3869.00
400.04	3766.00
400.51	3834.00
400.98	3773.00
401.44	3920.00
401.91	3851.00
402.38	3848.00
402.84	3800.00
403.31	3948.00
403.78	3844.00
404.25	3922.00
404.71	3930.00
405.18	3878.00
405.65	3764.00
406.12	3867.00
406.58	3816.00
407.05	3928.00
407.52	3838.00
407.98	4670.00
408.45	3796.00
408.92	3772.00
409.38	3884.00
409.85	3807.00
410.32	3938.00
410.78	3738.00
411.25	3884.00
411.72	3768.00
412.18	3733.00
412.65	3836.00
413.12	3804.00
413.59	3812.00
414.05	3867.00
414.52	3896.00
414.98	3768.00
415.45	3928.00
415.92	3827.00
416.38	3802.00
416.85	3910.00
417.32	3814.00
417.78	3757.00
418.25	3775.00
418.72	3800.00
419.18	3814.00
419.65	3742.00
420.12	3860.00
420.58	3765.00
421.05	3825.00
421.51	3814.00
421.98	3839.00
422.45	3808.00
422.91	3803.00
423.38	3828.00
423.85	3853.00
424.31	3785.00
424.78	3846.00
425.24	3846.00
425.71	3916.00
426.18	3779.00
426.64	3820.00
427.11	3841.00
427.57	3867.00
428.04	3774.00
428.51	3880.00
428.97	3838.00
429.44	3848.00
429.90	3850.00
430.37	3994.00
430.83	3777.00
431.30	3798.00
431.77	3892.00
432.23	3892.00
432.70	3837.00
433.16	3778.00
433.63	3858.00
434.09	3846.00
434.56	3870.00
435.03	3807.00
435.49	3850.00
435.96	3866.00
436.42	3834.00
436.89	3896.00
437.35	3859.00
437.82	3792.00
438.28	3812.00
438.75	3796.00
439.21	3995.00
439.68	3858.00
440.14	3862.00
440.61	3857.00
441.07	3801.00
441.54	3808.00
442.00	3924.00
442.47	3743.00
442.94	3828.00
443.40	3850.00
443.87	3752.00
444.33	3916.00
444.80	3860.00
445.26	3787.00
445.73	3824.00
446.19	3828.00
446.65	3766.00
447.12	3860.00
447.58	3770.00
448.05	3800.00
448.51	3807.00
448.98	3828.00
449.44	3787.00
449.91	3766.00
450.37	3716.00
450.84	3761.00
451.30	3810.00
451.77	3823.00
452.23	3772.00
452.70	3844.00
453.16	3779.00
453.62	3796.00
454.09	3755.00
454.55	3815.00
455.02	3740.00
455.48	3798.00
455.95	3830.00
456.41	3680.00
456.88	3834.00
457.34	3740.00
457.80	3752.00
458.27	3650.00
458.73	3749.00
459.20	3746.00
459.66	3778.00
460.13	3676.00
460.59	3690.00
461.05	3785.00
461.52	3750.00
461.98	3704.00
462.45	3664.00
462.91	3787.00
463.37	3666.00
463.84	3658.00
464.30	3680.00
464.76	3596.00
465.23	3656.00
465.69	3731.00
466.16	3748.00
466.62	3664.00
467.08	3686.00
467.55	3680.00
468.01	3684.00
468.48	3684.00
468.94	3628.00
469.40	3602.00
469.87	3666.00
470.33	3642.00
470.79	3636.00
471.26	3640.00
471.72	3616.00
472.18	3610.00
472.65	3610.00
473.11	3684.00
473.57	3616.00
474.04	3590.00
474.50	3594.00
474.96	3551.00
475.43	3652.00
475.89	3632.00
476.35	3608.00
476.82	3610.00
477.28	3617.00
477.74	3658.00
478.21	3644.00
478.67	3664.00
479.13	3552.00
479.59	3674.00
480.06	3592.00
480.52	3564.00
480.98	3580.00
481.45	3598.00
481.91	3644.00
482.37	3548.00
482.84	3540.00
483.30	3533.00
483.76	3580.00
484.22	3632.00
484.69	3610.00
485.15	3544.00
485.61	3494.00
486.07	3562.00
486.54	3495.00
487.00	3602.00
487.46	3512.00
487.92	3518.00
488.39	3602.00
488.85	3616.00
489.31	3586.00
489.77	3602.00
490.24	3526.00
490.70	3592.00
491.16	3499.00
491.62	3512.00
492.09	3499.00
492.55	3656.00
493.01	3596.00
493.47	3603.00
493.94	3598.00
494.40	3588.00
494.86	3518.00
495.32	3540.00
495.78	3604.00
496.25	3578.00
496.71	3540.00
497.17	3694.00
497.63	3622.00
498.09	3571.00
498.56	3620.00
499.02	3610.00
499.48	3755.00
499.94	3560.00
500.40	3576.00
500.87	3564.00
501.33	3576.00
501.79	3646.00
502.25	3636.00
502.71	3956.00
503.17	3600.00
503.64	3674.00
504.10	3594.00
504.56	3651.00
505.02	3646.00
505.48	3654.00
505.94	3664.00
506.40	3690.00
506.87	3662.00
507.33	3734.00
507.79	3734.00
508.25	3680.00
508.71	3704.00
509.17	3682.00
509.63	3729.00
510.10	3786.00
510.56	3773.00
511.02	3878.00
511.48	3926.00
511.94	3817.00
512.40	3791.00
512.86	3858.00
513.32	3913.00
513.78	3868.00
514.25	4005.00
514.71	4765.00
515.17	3932.00
515.63	4094.00
516.09	4150.00
516.55	4088.00
517.01	4262.00
517.47	4192.00
517.93	4170.00
518.39	4417.00
518.85	4309.00
519.32	4328.00
519.78	4394.00
520.24	4462.00
520.70	4561.00
521.16	4668.00
521.62	4730.00
522.08	4630.00
522.54	4822.00
523.00	4892.00
523.46	4958.00
523.92	5001.00
524.38	5248.00
524.84	5160.00
525.30	5286.00
525.76	5238.00
526.22	5150.00
526.68	5190.00
527.14	5236.00
527.60	5386.00
528.06	5547.00
528.52	5616.00
528.98	5672.00
529.44	5618.00
529.90	5760.00
530.36	5850.00
530.82	5860.00
531.28	5940.00
531.74	5944.00
532.20	5886.00
532.66	5918.00
533.12	6058.00
533.58	6042.00
534.04	6026.00
534.50	6130.00
534.96	6189.00
535.42	6278.00
535.88	6268.00
536.34	6203.00
536.80	6138.00
537.26	6276.00
537.72	6318.00
538.18	6320.00
538.64	6484.00
539.10	6390.00
539.56	6599.00
540.02	6238.00
540.48	6359.00
540.94	6404.00
541.40	6345.00
541.86	6506.00
542.32	6504.00
542.78	6466.00
543.24	6604.00
543.69	6468.00
544.15	6708.00
544.61	6632.00
545.07	6605.00
545.53	6609.00
545.99	6595.00
546.45	6606.00
546.91	6740.00
547.37	6600.00
547.83	6644.00
548.29	6665.00
548.74	6750.00
549.20	6720.00
549.66	6852.00
550.12	6756.00
550.58	6695.00
551.04	6792.00
551.50	6794.00
551.96	6948.00
552.42	6790.00
552.87	6740.00
553.33	6918.00
553.79	6870.00
554.25	6882.00
554.71	6890.00
555.17	6868.00
555.63	6900.00
556.08	6766.00
556.54	6756.00
557.00	6675.00
557.46	6760.00
557.92	6819.00
558.38	6575.00
558.83	6510.00
559.29	6488.00
559.75	6500.00
560.21	6547.00
560.67	6600.00
561.13	6510.00
561.58	6400.00
562.04	6345.00
562.50	6362.00
562.96	6337.00
563.42	6436.00
563.87	6222.00
564.33	6254.00
564.79	6174.00
565.25	6134.00
565.71	6035.00
566.16	6148.00
566.62	6051.00
567.08	5952.00
567.54	5960.00
568.00	5862.00
568.45	5787.00
568.91	5816.00
569.37	5805.00
569.83	5708.00
570.28	5561.00
570.74	5596.00
571.20	5562.00
571.66	5509.00
572.11	5500.00
572.57	5452.00
573.03	5418.00
573.49	5338.00
573.94	5350.00
574.40	5366.00
574.86	5321.00
575.32	5126.00
575.77	5184.00
576.23	5076.00
576.69	5184.00
577.15	5118.00
577.60	5078.00
578.06	4974.00
578.52	5032.00
578.97	5012.00
579.43	4956.00
579.89	4982.00
580.34	4912.00
580.80	4895.00
581.26	4897.00
581.72	4896.00
582.17	4870.00
582.63	4809.00
583.09	4832.00
583.54	4808.00
584.00	4819.00
584.46	4769.00
584.91	4732.00
585.37	4844.00
585.83	4732.00
586.28	4692.00
586.74	4744.00
587.20	4684.00
587.65	4764.00
588.11	4596.00
588.57	4568.00
589.02	4452.00
589.48	4471.00
589.94	4560.00
590.39	4598.00
590.85	4568.00
591.30	4549.00
591.76	4598.00
592.22	4527.00
592.67	4518.00
593.13	4522.00
593.59	4602.00
594.04	4510.00
594.50	4500.00
594.95	4586.00
595.41	4498.00
595.87	4516.00
596.32	4586.00
596.78	4539.00
597.23	4551.00
597.69	4544.00
598.15	4398.00
598.60	4504.00
599.06	4584.00
599.51	4440.00
599.97	4488.00
600.43	4536.00
600.88	4438.00
601.34	4466.00
601.79	4363.00
602.25	4584.00
602.70	4406.00
603.16	4484.00
603.61	4412.00
604.07	4374.00
604.53	4472.00
604.98	4436.00
605.44	4414.00
605.89	4456.00
606.35	4273.00
606.80	4372.00
607.26	4336.00
607.71	4308.00
608.17	4334.00
608.62	4352.00
609.08	4436.00
609.53	4392.00
609.99	4257.00
610.44	4273.00
610.90	4247.00
611.35	4258.00
611.81	4313.00
612.26	4238.00
612.72	4220.00
613.17	4315.00
613.63	4114.00
614.08	4124.00
614.54	4088.00
614.99	4088.00
615.45	4120.00
615.90	4125.00
616.36	4066.00
616.81	4100.00
617.27	4116.00
617.72	4150.00
618.18	4072.00
618.63	4020.00
619.09	4040.00
619.54	4116.00
619.99	4094.00
620.45	4138.00
620.90	4128.00
621.36	4018.00
621.81	4094.00
622.27	4106.00
622.72	4040.00
623.18	3992.00
623.63	3985.00
624.08	4054.00
624.54	3944.00
624.99	4020.00
625.45	4007.00
625.90	3954.00
626.35	4012.00
626.81	4024.00
627.26	3997.00
627.72	4056.00
628.17	4020.00
628.62	3903.00
629.08	3996.00
629.53	4036.00
629.99	3985.00
630.44	4029.00
630.89	3980.00
631.35	4054.00
631.80	4026.00
632.26	4064.00
632.71	3996.00
633.16	4000.00
633.62	3934.00
634.07	3950.00
634.52	3920.00
634.98	3998.00
635.43	3971.00
635.88	3906.00
636.34	3934.00
636.79	3894.00
637.24	3928.00
637.70	3975.00
638.15	3960.00
638.60	3850.00
639.06	3900.00
639.51	3880.00
639.96	3792.00
640.42	3904.00
640.87	3970.00
641.32	3787.00
641.78	3807.00
642.23	3816.00
642.68	3758.00
643.14	3769.00
643.59	3811.00
644.04	3773.00
644.49	3750.00
644.95	3722.00
645.40	3710.00
645.85	3764.00
646.31	3745.00
646.76	3771.00
647.21	3737.00
647.66	3768.00
648.12	3726.00
648.57	3690.00
649.02	3754.00
649.47	3682.00
649.93	3956.00
650.38	3672.00
650.83	3674.00
651.28	3696.00
651.74	3714.00
652.19	3658.00
652.64	3662.00
653.09	3650.00
653.55	3660.00
654.00	3724.00
654.45	3722.00
654.90	3698.00
655.35	3630.00
655.81	3715.00
656.26	3626.00
656.71	3638.00
657.16	3696.00
657.62	3664.00
658.07	3636.00
658.52	3678.00
658.97	3625.00
659.42	3888.00
659.88	3630.00
660.33	3680.00
660.78	3656.00
661.23	3590.00
661.68	3604.00
662.13	3636.00
662.59	3546.00
663.04	3662.00
663.49	3618.00
663.94	3624.00
664.39	3594.00
664.84	3582.00
665.30	3613.00
665.75	3540.00
666.20	3612.00
666.65	3626.00
667.10	3724.00
667.55	3674.00
668.00	3560.00
668.46	3614.00
668.91	3544.00
669.36	3739.00
669.81	3525.00
670.26	3624.00
670.71	3656.00
671.16	3620.00
671.61	3718.00
672.06	3715.00
672.52	3588.00
672.97	3588.00
673.42	3700.00
673.87	3773.00
674.32	3636.00
674.77	3660.00
675.22	3576.00
675.67	3630.00
676.12	3617.00
676.57	3572.00
677.02	3610.00
677.47	3595.00
677.93	3761.00
678.38	3619.00
678.83	3585.00
679.28	3618.00
679.73	3597.00
680.18	3598.00
680.63	3612.00
681.08	3540.00
681.53	3550.00
681.98	3634.00
682.43	3643.00
682.88	3656.00
683.33	3654.00
683.78	3649.00
684.23	3696.00
684.68	3652.00
685.13	3678.00
685.58	3713.00
686.03	3688.00
686.48	3656.00
686.93	3680.00
687.38	3646.00
687.83	3733.00
688.28	3712.00
688.73	3848.00
689.18	3830.00
689.63	3748.00
690.08	3812.00
690.53	3842.00
690.98	3837.00
691.43	3918.00
691.88	3958.00
692.33	4062.00
692.78	4150.00
693.23	4263.00
693.68	4292.00
694.13	4388.00
694.58	4504.00
695.03	4858.00
695.48	4749.00
695.93	4972.00
696.38	5210.00
696.83	5242.00
697.28	5362.00
697.72	5583.00
698.17	5736.00
698.62	5992.00
699.07	6207.00
699.52	6380.00
699.97	6632.00
700.42	6930.00
700.87	7218.00
701.32	7564.00
701.77	7600.00
702.22	7985.00
702.67	8123.00
703.11	8532.00
703.56	8863.00
704.01	9250.00
704.46	9579.00
704.91	10002.00
705.36	10322.00
705.81	10594.00
706.26	10894.00
706.70	11192.00
707.15	11544.00
707.60	11924.00
708.05	12290.00
708.50	12644.00
708.95	13075.00
709.40	13304.00
709.84	13726.00
710.29	14084.00
710.74	14395.00
711.19	14866.00
711.64	15105.00
712.09	15594.00
712.53	15956.00
712.98	16344.00
713.43	16805.00
713.88	17200.00
714.33	17544.00
714.78	17790.00
715.22	17956.00
715.67	18416.00
716.12	18418.00
716.57	18102.00
717.02	17754.00
717.46	17696.00
717.91	17894.00
718.36	17944.00
718.81	17998.00
719.26	18320.00
719.70	18832.00
720.15	19232.00
720.60	20368.00
721.05	21928.00
721.49	22964.00
721.94	23544.00
722.39	23772.00
722.84	23529.00
723.28	23042.00
723.73	23176.00
724.18	23493.00
724.63	24102.00
725.07	24362.00
725.52	25180.00
725.97	25676.00
726.42	26351.00
726.86	27067.00
727.31	26866.00
727.76	27486.00
728.21	28246.00
728.65	28366.00
729.10	28650.00
729.55	29453.00
729.99	30242.00
730.44	30693.00
730.89	31308.00
731.33	32228.00
731.78	33184.00
732.23	34278.00
732.68	35182.00
733.12	35892.00
733.57	36843.00
734.02	37376.00
734.46	38176.00
734.91	38252.00
735.36	38720.00
735.80	39212.00
736.25	39930.00
736.70	40264.00
737.14	40896.00
737.59	41464.00
738.04	41586.00
738.48	41482.00
738.93	41730.00
739.37	42650.00
739.82	43514.00
740.27	44020.00
740.71	43997.00
741.16	44350.00
741.61	44705.00
742.05	44948.00
742.50	45556.00
742.94	46060.00
743.39	46352.00
743.84	46450.00
744.28	46497.00
744.73	46948.00
745.18	47694.00
745.62	47856.00
746.07	48188.00
746.51	48164.00
746.96	48358.00
747.40	48132.00
747.85	48360.00
748.30	48426.00
748.74	48311.00
749.19	48342.00
749.63	48811.00
750.08	48776.00
750.52	48972.00
750.97	48992.00
751.42	49082.00
751.86	49324.00
752.31	48971.00
752.75	49106.00
753.20	49223.00
753.64	49238.00
754.09	49372.00
754.53	49434.00
754.98	49480.00
755.42	49512.00
755.87	49386.00
756.31	49266.00
756.76	49061.00
757.20	48900.00
757.65	48156.00
758.09	47624.00
758.54	46040.00
758.98	40771.00
759.43	32520.00
759.87	23428.00
760.32	18304.00
760.76	18578.00
761.21	22708.00
761.65	27027.00
762.10	28353.00
762.54	26714.00
762.99	25528.00
763.43	26298.00
763.88	28016.00
764.32	30426.00
764.77	33026.00
765.21	35276.00
765.66	37370.00
766.10	39192.00
766.54	41286.00
766.99	43208.00
767.43	44446.00
767.88	45440.00
768.32	46322.00
768.77	46854.00
769.21	47468.00
769.66	48144.00
770.10	48750.00
770.54	49020.00
770.99	48896.00
771.43	48712.00
771.88	48934.00
772.32	48974.00
772.76	48678.00
773.21	48797.00
773.65	48732.00
774.10	48260.00
774.54	48532.00
774.98	48424.00
775.43	48728.00
775.87	49274.00
776.31	49522.00
776.76	49478.00
777.20	49248.00
777.65	48748.00
778.09	48650.00
778.53	48392.00
778.98	48100.00
779.42	48040.00
779.86	48076.00
780.31	47832.00
780.75	48326.00
781.19	48392.00
781.64	48678.00
782.08	48886.00
782.52	48498.00
782.97	47972.00
783.41	47694.00
783.85	47464.00
784.30	47100.00
784.74	47052.00
785.18	46865.00
785.63	46855.00
786.07	47088.00
786.51	47252.00
786.95	46974.00
787.40	46875.00
787.84	46646.00
788.28	46424.00
788.73	46232.00
789.17	45957.00
789.61	45271.00
790.05	45036.00
790.50	44793.00
790.94	44570.00
791.38	44746.00
791.82	44836.00
792.27	44832.00
792.71	44990.00
793.15	45302.00
793.59	45038.00
794.04	44736.00
794.48	44636.00
794.92	44046.00
795.36	43566.00
795.81	43456.00
796.25	43232.00
796.69	43297.00
797.13	44086.00
797.57	44240.00
798.02	44564.00
798.46	44872.00
798.90	44534.00
799.34	44249.00
799.79	43787.00
800.23	43150.00
800.67	42940.00
801.11	42732.00
801.55	42474.00
801.99	42196.00
802.44	42374.00
802.88	42740.00
803.32	42896.00
803.76	43030.00
804.20	43245.00
804.64	43260.00
805.09	43124.00
805.53	43162.00
805.97	43042.00
806.41	42232.00
806.85	41964.00
807.29	41609.00
807.74	41412.00
808.18	41446.00
808.62	41154.00
809.06	41112.00
809.50	41458.00
809.94	41542.00
810.38	41641.00
810.82	41648.00
811.27	41406.00
811.71	40521.00
812.15	39798.00
812.59	38736.00
813.03	38110.00
813.47	36446.00
813.91	35676.00
814.35	35422.00
814.79	34738.00
815.23	34746.00
815.67	34060.00
816.12	34252.00
816.56	34178.00
817.00	34352.00
817.44	35002.00
817.88	34832.00
818.32	34292.00
818.76	34460.00
819.20	34478.00
819.64	34836.00
820.08	35215.00
820.52	36106.00
820.96	36686.00
821.40	35739.00
821.84	34548.00
822.28	33028.00
822.72	32970.00
823.16	32886.00
823.60	34600.00
824.04	36822.00
824.48	37252.00
824.92	37295.00
825.36	37332.00
825.80	36748.00
826.24	36287.00
826.68	35897.00
827.12	35830.00
827.56	35136.00
828.00	35066.00
828.44	35500.00
828.88	36102.00
829.32	36289.00
829.76	36462.00
830.20	37077.00
830.64	36204.00
831.08	36434.00
831.52	35968.00
831.96	35398.00
832.40	34854.00
832.84	35240.00
833.28	35626.00
833.72	36254.00
834.16	36880.00
834.60	37879.00
835.04	38516.00
835.48	38742.00
835.91	38494.00
836.35	38280.00
836.79	38270.00
837.23	37937.00
837.67	37438.00
838.11	37368.00
838.55	37400.00
838.99	37230.00
839.43	37667.00
839.87	38094.00
840.30	38582.00
840.74	39190.00
841.18	39258.00
841.62	39574.00
842.06	39608.00
842.50	39268.00
842.94	39086.00
843.38	38396.00
843.81	37736.00
844.25	37396.00
844.69	37212.00
845.13	37029.00
845.57	37332.00
846.01	37362.00
846.45	37664.00
846.88	38088.00
847.32	38347.00
847.76	38913.00
848.20	39258.00
848.64	38622.00
849.08	37890.00
849.51	37888.00
849.95	37135.00
850.39	37336.00
850.83	37728.00
851.27	37306.00
851.70	37004.00
852.14	36612.00
852.58	35795.00
853.02	34606.00
853.46	33986.00
853.89	33782.00
854.33	33720.00
854.77	35520.00
855.21	37624.00
855.65	38532.00
856.08	38941.00
856.52	39182.00
856.96	38948.00
857.40	38145.00
857.83	37602.00
858.27	36778.00
858.71	36298.00
859.15	36161.00
859.58	36394.00
860.02	36710.00
860.46	37260.00
860.89	37780.00
861.33	38144.00
861.77	38484.00
862.21	38960.00
862.64	39006.00
863.08	38948.00
863.52	38607.00
863.95	37845.00
864.39	37129.00
864.83	35634.00
865.27	34176.00
865.70	34212.00
866.14	33394.00
866.58	33390.00
867.01	35088.00
867.45	36260.00
867.89	37073.00
868.32	37932.00
868.76	38079.00
869.20	38270.00
869.63	38584.00
870.07	37930.00
870.51	37134.00
870.94	36332.00
871.38	35652.00
871.82	34924.00
872.25	34668.00
872.69	34521.00
873.13	34866.00
873.56	35219.00
874.00	35720.00
874.43	36278.00
874.87	36747.00
875.31	37090.00
875.74	37232.00
876.18	37484.00
876.61	37602.00
877.05	37128.00
877.49	36738.00
877.92	36204.00
878.36	35522.00
878.79	35132.00
879.23	34346.00
879.67	33848.00
880.10	33841.00
880.54	34020.00
880.97	34092.00
881.41	35219.00
881.84	36108.00
882.28	36630.00
882.72	37336.00
883.15	37654.00
883.59	37898.00
884.02	37744.00
884.46	37422.00
884.89	37067.00
885.33	36136.00
885.76	35182.00
886.20	34474.00
886.63	33902.00
887.07	33856.00
887.50	33766.00
887.94	33802.00
888.37	34048.00
888.81	34540.00
889.24	34833.00
889.68	35296.00
890.11	35664.00
890.55	36206.00
890.98	36336.00
891.42	36380.00
891.85	36022.00
892.29	35866.00
892.72	34882.00
893.16	33994.00
893.59	33218.00
894.03	32242.00
894.46	31074.00
894.90	29832.00
895.33	28758.00
895.77	28884.00
896.20	28542.00
896.63	28784.00
897.07	28726.00
897.50	28295.00
897.94	28836.00
898.37	29844.00
898.81	27858.00
899.24	28342.00
899.68	29600.00
900.11	28796.00
900.54	28254.00
900.98	27828.00
901.41	27690.00
901.85	28012.00
902.28	27920.00
902.71	28340.00
903.15	29260.00
903.58	30056.00
904.02	29957.00
904.45	29942.00
904.88	29724.00
905.32	29556.00
905.75	29402.00
906.18	28620.00
906.62	28642.00
907.05	27964.00
907.48	28274.00
907.92	27998.00
908.35	27896.00
908.79	27500.00
909.22	27408.00
909.65	26962.00
910.09	26940.00
910.52	26174.00
910.95	26584.00
911.38	26639.00
911.82	25763.00
912.25	26301.00
912.68	26662.00
913.12	26498.00
913.55	26642.00
913.98	27849.00
914.42	28930.00
914.85	29250.00
915.28	27764.00
915.72	27562.00
916.15	27402.00
916.58	27508.00
917.01	26364.00
917.45	25820.00
917.88	26628.00
918.31	26815.00
918.74	27820.00
919.18	28026.00
919.61	28162.00
920.04	28708.00
920.47	28837.00
920.91	29059.00
921.34	28896.00
921.77	28930.00
922.20	29598.00
922.64	29518.00
923.07	29344.00
923.50	29052.00
923.93	28723.00
924.37	28386.00
924.80	27933.00
925.23	27474.00
925.66	26454.00
926.09	25182.00
926.53	24622.00
926.96	23922.00
927.39	22927.00
927.82	21678.00
928.25	20736.00
928.69	20402.00
929.12	19931.00
929.55	18944.00
929.98	18216.00
930.41	17286.00
930.84	16378.00
931.28	15294.00
931.71	14094.00
932.14	12696.00
932.57	12473.00
933.00	11868.00
933.43	11350.00
933.86	10526.00
934.30	10332.00
934.73	11507.00
935.16	10716.00
935.59	10282.00
936.02	10860.00
936.45	10590.00
936.88	10751.00
937.31	11618.00
937.75	12164.00
938.18	12738.00
938.61	13414.00
939.04	14130.00
939.47	13618.00
939.90	12900.00
940.33	12473.00
940.76	11476.00
941.19	11076.00
941.62	10846.00
942.05	10626.00
942.48	9566.00
942.91	9768.00
943.35	10190.00
943.78	9458.00
944.21	9528.00
944.64	10444.00
945.07	10458.00
945.50	10314.00
945.93	10486.00
946.36	10946.00
946.79	11338.00
947.22	11984.00
947.65	11474.00
948.08	11128.00
948.51	12007.00
948.94	12240.00
949.37	11600.00
949.80	11114.00
950.23	11486.00
950.66	11996.00
951.09	11818.00
951.52	11358.00
951.95	11372.00
952.38	11854.00
952.81	12468.00
953.24	13100.00
953.67	13244.00
954.10	13206.00
954.53	13788.00
954.96	13548.00
955.39	14278.00
955.82	14802.00
956.25	14346.00
956.68	14610.00
957.11	14988.00
957.53	14361.00
957.96	14412.00
958.39	13950.00
958.82	13474.00
959.25	14046.00
959.68	14622.00
960.11	14632.00
960.54	14918.00
960.97	15846.00
961.40	16124.00
961.83	15970.00
962.26	16436.00
962.68	17644.00
963.11	17988.00
963.54	17962.00
963.97	18200.00
964.40	18214.00
964.83	18651.00
965.26	18897.00
965.69	18546.00
966.11	18352.00
966.54	18662.00
966.97	19526.00
967.40	19520.00
967.83	19614.00
968.26	19552.00
968.69	19646.00
969.11	19708.00
969.54	19598.00
969.97	19838.00
970.40	20060.00
970.83	20141.00
971.26	20354.00
971.68	20312.00
972.11	20424.00
972.54	20830.00
972.97	20678.00
973.40	20420.00
973.82	20458.00
974.25	20278.00
974.68	20140.00
975.11	19906.00
975.54	19381.00
975.96	19264.00
976.39	19258.00
976.82	19398.00
977.25	19120.00
977.67	18949.00
978.10	19117.00
978.53	19458.00
978.96	19880.00
979.38	20271.00
979.81	20444.00
980.24	21090.00
980.67	21468.00
981.09	21770.00
981.52	21904.00
981.95	21878.00
982.38	22028.00
982.80	22364.00
983.23	22672.00
983.66	22804.00
984.08	22474.00
984.51	22336.00
984.94	22151.00
985.37	21754.00
985.79	21410.00
986.22	20952.00
986.65	20684.00
987.07	20397.00
987.50	20444.00
987.93	20496.00
988.35	20510.00
988.78	20649.00
989.21	20647.00
989.63	21228.00
990.06	21508.00
990.49	21594.00
990.91	22162.00
991.34	22207.00
991.77	22354.00
992.19	22292.00
992.62	22394.00
993.05	22260.00
993.47	22066.00
993.90	21836.00
994.32	21452.00
994.75	21010.00
995.18	20626.00
995.60	20452.00
996.03	20056.00
996.45	20006.00
996.88	19804.00
997.31	19704.00
997.73	19760.00
998.16	19804.00
998.58	19950.00
999.01	19979.00
999.44	20220.00
999.86	20464.00
1000.29	20691.00
1000.71	20752.00
1001.14	20884.00
1001.56	20788.00
1001.99	20618.00
1002.41	20476.00
1002.84	20100.00
1003.27	19750.00
1003.69	19372.00
1004.12	19075.00
1004.54	18616.00
1004.97	18413.00
1005.39	18020.00
1005.82	18042.00
1006.24	18022.00
1006.67	17766.00
1007.09	17649.00
1007.52	17770.00
1007.94	17782.00
1008.37	18042.00
1008.79	17934.00
1009.22	17916.00
1009.64	18089.00
1010.07	18036.00
1010.49	18100.00
1010.92	18168.00
1011.34	18212.00
1011.77	18130.00
1012.19	18108.00
1012.62	17966.00
1013.04	17714.00
1013.46	17444.00
1013.89	17072.00
1014.31	16724.00
1014.74	16456.00
1015.16	16257.00
1015.59	16129.00
1016.01	16088.00
1016.44	16184.00
1016.86	17624.00
1017.28	16236.00
1017.71	16382.00
1018.13	16828.00
1018.56	16928.00
1018.98	16988.00
1019.40	17002.00
1019.83	17138.00
1020.25	17222.00
1020.68	17384.00
1021.10	17558.00
1021.52	17593.00
1021.95	17894.00
1022.37	17667.00
1022.79	17574.00
1023.22	17608.00
1023.64	17194.00
1024.07	17119.00
1024.49	16936.00
1024.91	16637.00
1025.34	16460.00
1025.76	16292.00
1026.18	16149.00
1026.61	16003.00
1027.03	15984.00
1027.45	16097.00
1027.88	15928.00
1028.30	16169.00
1028.72	16244.00
1029.15	16362.00
1029.57	16516.00
1029.99	16464.00
1030.41	16380.00
1030.84	16510.00
1031.26	16442.00
1031.68	16268.00
1032.11	16148.00
1032.53	15942.00
1032.95	15758.00
1033.37	15476.00
1033.80	15326.00
1034.22	15126.00
1034.64	14983.00
1035.06	14666.00
1035.49	14426.00
1035.91	14288.00
1036.33	13994.00
1036.75	14028.00
1037.18	13868.00
1037.60	13900.00
1038.02	13818.00
1038.44	13818.00
1038.87	13904.00
1039.29	13756.00
1039.71	13984.00
1040.13	14022.00
1040.55	13892.00
1040.98	13979.00
1041.40	13934.00
1041.82	13791.00
1042.24	13698.00
1042.66	13436.00
1043.09	13225.00
1043.51	13162.00
1043.93	12950.00
1044.35	12702.00
1044.77	12700.00
1045.20	12538.00
1045.62	12156.00
1046.04	12126.00
1046.46	11954.00
1046.88	11819.00
1047.30	11777.00
1047.72	11649.00
1048.15	11588.00
1048.57	11520.00
1048.99	11416.00
1049.41	11535.00
1049.83	11451.00
1050.25	11555.00
1050.67	11410.00
1051.09	11376.00
1051.52	11402.00
1051.94	11209.00
1052.36	11206.00
1052.78	11086.00
1053.20	11168.00
1053.62	10989.00
1054.04	10870.00
1054.46	10739.00
1054.88	10786.00
1055.30	10729.00
1055.72	10526.00
1056.14	10413.00
1056.57	10400.00
1056.99	9953.00
1057.41	9970.00
1057.83	9936.00
1058.25	9705.00
1058.67	9732.00
1059.09	9592.00
1059.51	9530.00
1059.93	9488.00
1060.35	9322.00
1060.77	9272.00
1061.19	9276.00
1061.61	9108.00
1062.03	9018.00
1062.45	9040.00
1062.87	9014.00
1063.29	8992.00
1063.71	8940.00
1064.13	8872.00
1064.55	8800.00
1064.97	8854.00
1065.39	8822.00
1065.81	8676.00
1066.23	8702.00
1066.65	8568.00
1067.07	8612.00
1067.49	8360.00
1067.91	8284.00
1068.33	8206.00
1068.75	8264.00
1069.17	8170.00
1069.59	8124.00
1070.00	8036.00
1070.42	7911.00
1070.84	7806.00
1071.26	7773.00
1071.68	7754.00
1072.10	7754.00
1072.52	7648.00
1072.94	7562.00
1073.36	7586.00
1073.78	7656.00
1074.20	7594.00
1074.62	7546.00
1075.03	7472.00
1075.45	7506.00
1075.87	7613.00
1076.29	7484.00
1076.71	7448.00
1077.13	7418.00
1077.55	7276.00
1077.97	7236.00
1078.38	7130.00
1078.80	7134.00
1079.22	7153.00
1079.64	6934.00
1080.06	6952.00
1080.48	6880.00
1080.89	6884.00
1081.31	6694.00
1081.73	6728.00
1082.15	6618.00
1082.57	6642.00
1082.99	6653.00
1083.40	6546.00
1083.82	6502.00
1084.24	6428.00
1084.66	6474.00
1085.08	6394.00
1085.49	6258.00
1085.91	6451.00
1086.33	7766.00
1086.75	6388.00
1087.17	6364.00
1087.58	6307.00
1088.00	6321.00
1088.42	6289.00
1088.84	6216.00
1089.25	6111.00
1089.67	6092.00
1090.09	6043.00
1090.51	6014.00
1090.92	5946.00
1091.34	5819.00
1091.76	5742.00
1092.18	5728.00
1092.59	5626.00
1093.01	5648.00
1093.43	5565.00
1093.84	5554.00
1094.26	5564.00
1094.68	5533.00
1095.10	5435.00
1095.51	5478.00
1095.93	5362.00
1096.35	5428.00
1096.76	5362.00
1097.18	5406.00
1097.60	5347.00
1098.01	5244.00
1098.43	5224.00
1098.85	5214.00
1099.26	5186.00
1099.68	5160.00
1100.10	5016.00
1100.51	5034.00
1100.93	4955.00
1101.35	4942.00
1101.76	4884.00
1102.18	5444.00
1102.60	4914.00
1103.01	4704.00
1103.43	4734.00
1103.84	4742.00
1104.26	4698.00
1104.68	4720.00
1105.09	4646.00
1105.51	4654.00
1105.92	4648.00
1106.34	4520.00
1106.76	4604.00
1107.17	4537.00
1107.59	4490.00
1108.00	4338.00
1108.42	4400.00
1108.83	4330.00
1109.25	4340.00
1109.67	4292.00
1110.08	4244.00
1110.50	4222.00
1110.91	4202.00
1111.33	4164.00
1111.74	4100.00
1112.16	4172.00
1112.57	4110.00
1112.99	4012.00
1113.41	3999.00
1113.82	3960.00
1114.24	3889.00
1114.65	3804.00
1115.07	3662.00
1115.48	3535.00
1115.90	2184.00
1116.31	2218.00
1116.73	2217.00
1117.14	2221.00
>>>>>End Processed Spectral Data<<<<<
