SpectraSuite Data File
++++++++++++++++++++++++++++++++++++
Date: Tue May 29 13:19:42 EEST 2018
User: CanSEE
Dark Spectrum Present: No
Reference Spectrum Present: No
Number of Sampled Component Spectra: 1
Spectrometers: MAYP11278
Integration Time (usec): 220000 (MAYP11278)
Spectra Averaged: 1 (MAYP11278)
Boxcar Smoothing: 0 (MAYP11278)
Correct for Electrical Dark: No (MAYP11278)
Strobe/Lamp Enabled: No (MAYP11278)
Correct for Detector Non-linearity: No (MAYP11278)
Correct for Stray Light: No (MAYP11278)
Number of Pixels in Processed Spectrum: 2068
>>>>>Begin Processed Spectral Data<<<<<
187.82	2348.00
188.30	2247.00
188.78	2222.00
189.26	2216.00
189.73	3435.00
190.21	3570.00
190.69	3805.00
191.17	3741.00
191.64	3832.00
192.12	3776.00
192.60	3718.00
193.07	3723.00
193.55	3810.00
194.03	3771.00
194.51	3832.00
194.98	3764.00
195.46	3805.00
195.94	3764.00
196.42	3764.00
196.89	3843.00
197.37	3763.00
197.85	3752.00
198.32	3696.00
198.80	3772.00
199.28	3770.00
199.76	3810.00
200.23	3773.00
200.71	3782.00
201.19	3787.00
201.66	3799.00
202.14	3754.00
202.62	3696.00
203.09	3783.00
203.57	3762.00
204.05	3804.00
204.53	3855.00
205.00	3749.00
205.48	3712.00
205.96	3861.00
206.43	3760.00
206.91	3761.00
207.39	3881.00
207.86	3791.00
208.34	3750.00
208.82	3757.00
209.29	3772.00
209.77	3793.00
210.25	3758.00
210.72	3795.00
211.20	3814.00
211.68	3764.00
212.15	3738.00
212.63	3836.00
213.11	3809.00
213.58	3769.00
214.06	3869.00
214.53	3756.00
215.01	3812.00
215.49	3806.00
215.96	3820.00
216.44	3801.00
216.92	3811.00
217.39	3739.00
217.87	3787.00
218.35	3793.00
218.82	3717.00
219.30	3751.00
219.77	3762.00
220.25	3782.00
220.73	3874.00
221.20	3718.00
221.68	3836.00
222.15	3784.00
222.63	3818.00
223.11	3772.00
223.58	3772.00
224.06	3844.00
224.53	3750.00
225.01	3710.00
225.49	3758.00
225.96	3769.00
226.44	3764.00
226.91	3836.00
227.39	3721.00
227.87	3811.00
228.34	3800.00
228.82	3799.00
229.29	3761.00
229.77	3740.00
230.24	3762.00
230.72	3794.00
231.20	3816.00
231.67	3803.00
232.15	3782.00
232.62	3715.00
233.10	3780.00
233.57	3808.00
234.05	3954.00
234.53	3782.00
235.00	3765.00
235.48	3752.00
235.95	3780.00
236.43	3800.00
236.90	3914.00
237.38	3738.00
237.85	3782.00
238.33	3769.00
238.80	3758.00
239.28	3767.00
239.75	3746.00
240.23	3836.00
240.71	3858.00
241.18	3804.00
241.66	3790.00
242.13	3842.00
242.61	3845.00
243.08	3730.00
243.56	3772.00
244.03	3862.00
244.51	3819.00
244.98	3800.00
245.46	3831.00
245.93	5746.00
246.41	3734.00
246.88	3780.00
247.36	3741.00
247.83	3802.00
248.31	3808.00
248.78	3690.00
249.26	3792.00
249.73	3842.00
250.21	3816.00
250.68	3868.00
251.16	3803.00
251.63	3877.00
252.10	3902.00
252.58	3756.00
253.05	3864.00
253.53	3815.00
254.00	3771.00
254.48	3818.00
254.95	3834.00
255.43	3836.00
255.90	3763.00
256.38	3821.00
256.85	3860.00
257.33	3850.00
257.80	3944.00
258.27	3853.00
258.75	3827.00
259.22	3867.00
259.70	3761.00
260.17	3886.00
260.65	3794.00
261.12	3779.00
261.59	3858.00
262.07	3735.00
262.54	3829.00
263.02	3807.00
263.49	3762.00
263.97	3811.00
264.44	3846.00
264.91	3763.00
265.39	3867.00
265.86	3860.00
266.34	3851.00
266.81	3776.00
267.28	3796.00
267.76	3798.00
268.23	3846.00
268.71	3712.00
269.18	3768.00
269.65	3734.00
270.13	3793.00
270.60	3868.00
271.08	3780.00
271.55	3816.00
272.02	3755.00
272.50	3741.00
272.97	3716.00
273.44	3813.00
273.92	3962.00
274.39	3838.00
274.87	3857.00
275.34	3796.00
275.81	3784.00
276.29	3839.00
276.76	3788.00
277.23	3662.00
277.71	3736.00
278.18	3676.00
278.65	3886.00
279.13	3682.00
279.60	3737.00
280.07	4094.00
280.55	4044.00
281.02	4118.00
281.50	3862.00
281.97	3990.00
282.44	3848.00
282.91	3864.00
283.39	3852.00
283.86	3811.00
284.33	3793.00
284.81	3851.00
285.28	3884.00
285.75	3817.00
286.23	3860.00
286.70	3759.00
287.17	3812.00
287.65	3899.00
288.12	3819.00
288.59	3844.00
289.07	3730.00
289.54	3900.00
290.01	3771.00
290.48	3858.00
290.96	3795.00
291.43	3852.00
291.90	3922.00
292.38	3791.00
292.85	3862.00
293.32	3767.00
293.79	3850.00
294.27	3828.00
294.74	3803.00
295.21	3839.00
295.69	3876.00
296.16	3930.00
296.63	3905.00
297.10	3854.00
297.58	3867.00
298.05	3878.00
298.52	3848.00
298.99	3885.00
299.47	3793.00
299.94	3811.00
300.41	3788.00
300.88	3856.00
301.36	3886.00
301.83	3806.00
302.30	3792.00
302.77	3842.00
303.25	3890.00
303.72	3773.00
304.19	3844.00
304.66	3753.00
305.13	3851.00
305.61	3846.00
306.08	3820.00
306.55	3827.00
307.02	3799.00
307.49	3766.00
307.97	3851.00
308.44	3778.00
308.91	3824.00
309.38	3846.00
309.86	3855.00
310.33	3821.00
310.80	3863.00
311.27	3844.00
311.74	3837.00
312.21	3838.00
312.69	3944.00
313.16	3817.00
313.63	3832.00
314.10	3848.00
314.57	3829.00
315.05	3764.00
315.52	3872.00
315.99	3851.00
316.46	3856.00
316.93	3842.00
317.40	3830.00
317.88	3972.00
318.35	3854.00
318.82	3803.00
319.29	3784.00
319.76	3838.00
320.23	3942.00
320.70	3897.00
321.18	3850.00
321.65	3759.00
322.12	3762.00
322.59	3942.00
323.06	3864.00
323.53	4027.00
324.00	3776.00
324.48	3824.00
324.95	3817.00
325.42	3834.00
325.89	3848.00
326.36	3885.00
326.83	3860.00
327.30	3876.00
327.77	3875.00
328.24	3903.00
328.72	3854.00
329.19	3826.00
329.66	3788.00
330.13	3860.00
330.60	3912.00
331.07	3900.00
331.54	3910.00
332.01	3838.00
332.48	3979.00
332.95	3866.00
333.43	3900.00
333.90	3944.00
334.37	3905.00
334.84	3906.00
335.31	4086.00
335.78	3788.00
336.25	3858.00
336.72	3851.00
337.19	3830.00
337.66	3796.00
338.13	3839.00
338.60	3884.00
339.07	3817.00
339.54	3796.00
340.01	3793.00
340.49	3764.00
340.96	3805.00
341.43	3890.00
341.90	3776.00
342.37	3796.00
342.84	3870.00
343.31	3800.00
343.78	3769.00
344.25	3795.00
344.72	3763.00
345.19	3802.00
345.66	3853.00
346.13	3798.00
346.60	3759.00
347.07	3874.00
347.54	3761.00
348.01	3859.00
348.48	3827.00
348.95	3752.00
349.42	3818.00
349.89	3844.00
350.36	3777.00
350.83	3811.00
351.30	3785.00
351.77	3901.00
352.24	3820.00
352.71	3818.00
353.18	3822.00
353.65	3856.00
354.12	3854.00
354.59	3867.00
355.06	3826.00
355.53	3873.00
356.00	3780.00
356.47	3892.00
356.94	3765.00
357.41	3982.00
357.88	3868.00
358.35	3731.00
358.82	3761.00
359.28	3788.00
359.75	3787.00
360.22	3840.00
360.69	3938.00
361.16	3825.00
361.63	3841.00
362.10	3843.00
362.57	3798.00
363.04	3816.00
363.51	3910.00
363.98	3838.00
364.45	3768.00
364.92	3822.00
365.39	3828.00
365.86	3775.00
366.32	3836.00
366.79	3824.00
367.26	4728.00
367.73	4246.00
368.20	3798.00
368.67	3859.00
369.14	3775.00
369.61	3882.00
370.08	3834.00
370.55	3817.00
371.02	4572.00
371.48	3878.00
371.95	3788.00
372.42	3734.00
372.89	3825.00
373.36	3788.00
373.83	3772.00
374.30	3768.00
374.77	3826.00
375.23	3767.00
375.70	3944.00
376.17	3791.00
376.64	3794.00
377.11	3757.00
377.58	3830.00
378.05	3853.00
378.51	3852.00
378.98	3818.00
379.45	3836.00
379.92	3856.00
380.39	4020.00
380.86	3834.00
381.33	3942.00
381.79	3898.00
382.26	3760.00
382.73	3851.00
383.20	3809.00
383.67	3865.00
384.14	3852.00
384.60	4089.00
385.07	3868.00
385.54	3818.00
386.01	3818.00
386.48	3926.00
386.94	3793.00
387.41	3764.00
387.88	3857.00
388.35	3791.00
388.82	3892.00
389.28	3821.00
389.75	3912.00
390.22	3842.00
390.69	3830.00
391.16	3802.00
391.62	3852.00
392.09	3797.00
392.56	3823.00
393.03	3820.00
393.50	3981.00
393.96	3841.00
394.43	3926.00
394.90	3768.00
395.37	3898.00
395.83	4095.00
396.30	3787.00
396.77	3886.00
397.24	3876.00
397.70	3810.00
398.17	3814.00
398.64	3814.00
399.11	3796.00
399.57	3858.00
400.04	3754.00
400.51	3827.00
400.98	3804.00
401.44	3916.00
401.91	3802.00
402.38	3839.00
402.84	3820.00
403.31	3924.00
403.78	3833.00
404.25	3895.00
404.71	3880.00
405.18	3884.00
405.65	3750.00
406.12	3873.00
406.58	3854.00
407.05	3938.00
407.52	3847.00
407.98	4497.00
408.45	3828.00
408.92	3774.00
409.38	3924.00
409.85	3760.00
410.32	3879.00
410.78	3769.00
411.25	3904.00
411.72	3798.00
412.18	3729.00
412.65	3842.00
413.12	3844.00
413.59	3849.00
414.05	3860.00
414.52	3902.00
414.98	3788.00
415.45	3938.00
415.92	3834.00
416.38	3819.00
416.85	3934.00
417.32	3839.00
417.78	3832.00
418.25	3803.00
418.72	3788.00
419.18	3864.00
419.65	3768.00
420.12	3868.00
420.58	3787.00
421.05	3810.00
421.51	3816.00
421.98	3846.00
422.45	3756.00
422.91	3818.00
423.38	3862.00
423.85	3812.00
424.31	3806.00
424.78	3877.00
425.24	3798.00
425.71	3918.00
426.18	3789.00
426.64	3854.00
427.11	3882.00
427.57	3864.00
428.04	3794.00
428.51	3853.00
428.97	3858.00
429.44	3810.00
429.90	3801.00
430.37	3995.00
430.83	3755.00
431.30	3793.00
431.77	3894.00
432.23	3852.00
432.70	3806.00
433.16	3794.00
433.63	3862.00
434.09	3799.00
434.56	3868.00
435.03	3784.00
435.49	3867.00
435.96	3834.00
436.42	3752.00
436.89	3883.00
437.35	3876.00
437.82	3858.00
438.28	3836.00
438.75	3834.00
439.21	4026.00
439.68	3822.00
440.14	3864.00
440.61	3898.00
441.07	3782.00
441.54	3820.00
442.00	3952.00
442.47	3767.00
442.94	3804.00
443.40	3867.00
443.87	3720.00
444.33	3898.00
444.80	3818.00
445.26	3801.00
445.73	3783.00
446.19	3863.00
446.65	3819.00
447.12	3845.00
447.58	3772.00
448.05	3794.00
448.51	3852.00
448.98	3841.00
449.44	3846.00
449.91	3745.00
450.37	3756.00
450.84	3774.00
451.30	3802.00
451.77	3844.00
452.23	3718.00
452.70	3836.00
453.16	3794.00
453.62	3771.00
454.09	3796.00
454.55	3843.00
455.02	3792.00
455.48	3791.00
455.95	3845.00
456.41	3748.00
456.88	3834.00
457.34	3777.00
457.80	3780.00
458.27	3707.00
458.73	3778.00
459.20	3797.00
459.66	3732.00
460.13	3718.00
460.59	3720.00
461.05	3822.00
461.52	3759.00
461.98	3696.00
462.45	3716.00
462.91	3798.00
463.37	3686.00
463.84	3735.00
464.30	3723.00
464.76	3654.00
465.23	3652.00
465.69	3748.00
466.16	3724.00
466.62	3722.00
467.08	3674.00
467.55	3658.00
468.01	3676.00
468.48	3660.00
468.94	3656.00
469.40	3620.00
469.87	3658.00
470.33	3662.00
470.79	3628.00
471.26	3632.00
471.72	3551.00
472.18	3634.00
472.65	3628.00
473.11	3684.00
473.57	3618.00
474.04	3594.00
474.50	3640.00
474.96	3574.00
475.43	3688.00
475.89	3662.00
476.35	3666.00
476.82	3622.00
477.28	3640.00
477.74	3654.00
478.21	3622.00
478.67	3642.00
479.13	3570.00
479.59	3715.00
480.06	3623.00
480.52	3628.00
480.98	3552.00
481.45	3596.00
481.91	3592.00
482.37	3590.00
482.84	3534.00
483.30	3577.00
483.76	3604.00
484.22	3668.00
484.69	3606.00
485.15	3594.00
485.61	3520.00
486.07	3586.00
486.54	3524.00
487.00	3604.00
487.46	3548.00
487.92	3555.00
488.39	3547.00
488.85	3598.00
489.31	3626.00
489.77	3636.00
490.24	3498.00
490.70	3610.00
491.16	3528.00
491.62	3543.00
492.09	3497.00
492.55	3636.00
493.01	3573.00
493.47	3603.00
493.94	3571.00
494.40	3584.00
494.86	3538.00
495.32	3557.00
495.78	3619.00
496.25	3573.00
496.71	3576.00
497.17	3714.00
497.63	3648.00
498.09	3551.00
498.56	3608.00
499.02	3579.00
499.48	3743.00
499.94	3604.00
500.40	3583.00
500.87	3664.00
501.33	3582.00
501.79	3648.00
502.25	3638.00
502.71	3971.00
503.17	3654.00
503.64	3666.00
504.10	3692.00
504.56	3676.00
505.02	3716.00
505.48	3666.00
505.94	3714.00
506.40	3758.00
506.87	3690.00
507.33	3744.00
507.79	3781.00
508.25	3747.00
508.71	3720.00
509.17	3723.00
509.63	3773.00
510.10	3797.00
510.56	3806.00
511.02	3917.00
511.48	3952.00
511.94	3870.00
512.40	3823.00
512.86	3884.00
513.32	3986.00
513.78	3838.00
514.25	4063.00
514.71	4738.00
515.17	4009.00
515.63	4124.00
516.09	4162.00
516.55	4142.00
517.01	4254.00
517.47	4267.00
517.93	4234.00
518.39	4432.00
518.85	4376.00
519.32	4400.00
519.78	4428.00
520.24	4529.00
520.70	4592.00
521.16	4758.00
521.62	4726.00
522.08	4792.00
522.54	4812.00
523.00	5011.00
523.46	4995.00
523.92	5062.00
524.38	5246.00
524.84	5212.00
525.30	5298.00
525.76	5300.00
526.22	5194.00
526.68	5244.00
527.14	5382.00
527.60	5482.00
528.06	5580.00
528.52	5748.00
528.98	5746.00
529.44	5740.00
529.90	5794.00
530.36	5922.00
530.82	5926.00
531.28	6069.00
531.74	5931.00
532.20	5954.00
532.66	5960.00
533.12	6124.00
533.58	6132.00
534.04	6144.00
534.50	6210.00
534.96	6285.00
535.42	6374.00
535.88	6404.00
536.34	6334.00
536.80	6248.00
537.26	6440.00
537.72	6394.00
538.18	6440.00
538.64	6526.00
539.10	6474.00
539.56	6653.00
540.02	6300.00
540.48	6520.00
540.94	6424.00
541.40	6456.00
541.86	6502.00
542.32	6561.00
542.78	6566.00
543.24	6625.00
543.69	6614.00
544.15	6819.00
544.61	6734.00
545.07	6728.00
545.53	6706.00
545.99	6748.00
546.45	6718.00
546.91	6825.00
547.37	6816.00
547.83	6784.00
548.29	6817.00
548.74	6790.00
549.20	6845.00
549.66	6958.00
550.12	6902.00
550.58	6760.00
551.04	6915.00
551.50	6902.00
551.96	7070.00
552.42	6890.00
552.87	6825.00
553.33	6945.00
553.79	6934.00
554.25	6890.00
554.71	7010.00
555.17	6932.00
555.63	6974.00
556.08	6920.00
556.54	6902.00
557.00	6772.00
557.46	6758.00
557.92	6920.00
558.38	6670.00
558.83	6652.00
559.29	6598.00
559.75	6662.00
560.21	6612.00
560.67	6726.00
561.13	6614.00
561.58	6506.00
562.04	6496.00
562.50	6456.00
562.96	6524.00
563.42	6494.00
563.87	6341.00
564.33	6368.00
564.79	6400.00
565.25	6190.00
565.71	6116.00
566.16	6185.00
566.62	6100.00
567.08	6040.00
567.54	6059.00
568.00	5944.00
568.45	5912.00
568.91	5884.00
569.37	5882.00
569.83	5718.00
570.28	5670.00
570.74	5688.00
571.20	5664.00
571.66	5540.00
572.11	5582.00
572.57	5545.00
573.03	5522.00
573.49	5434.00
573.94	5381.00
574.40	5440.00
574.86	5390.00
575.32	5252.00
575.77	5288.00
576.23	5154.00
576.69	5238.00
577.15	5154.00
577.60	5138.00
578.06	5020.00
578.52	5128.00
578.97	5130.00
579.43	5018.00
579.89	5094.00
580.34	4990.00
580.80	4970.00
581.26	4968.00
581.72	4988.00
582.17	4968.00
582.63	4893.00
583.09	4948.00
583.54	4893.00
584.00	4868.00
584.46	4884.00
584.91	4802.00
585.37	4934.00
585.83	4747.00
586.28	4776.00
586.74	4784.00
587.20	4690.00
587.65	4815.00
588.11	4630.00
588.57	4658.00
589.02	4554.00
589.48	4514.00
589.94	4620.00
590.39	4676.00
590.85	4606.00
591.30	4630.00
591.76	4676.00
592.22	4584.00
592.67	4606.00
593.13	4608.00
593.59	4650.00
594.04	4570.00
594.50	4652.00
594.95	4688.00
595.41	4541.00
595.87	4573.00
596.32	4646.00
596.78	4623.00
597.23	4600.00
597.69	4568.00
598.15	4442.00
598.60	4576.00
599.06	4604.00
599.51	4488.00
599.97	4596.00
600.43	4656.00
600.88	4489.00
601.34	4532.00
601.79	4440.00
602.25	4678.00
602.70	4444.00
603.16	4541.00
603.61	4440.00
604.07	4460.00
604.53	4508.00
604.98	4496.00
605.44	4502.00
605.89	4478.00
606.35	4394.00
606.80	4414.00
607.26	4402.00
607.71	4462.00
608.17	4436.00
608.62	4416.00
609.08	4536.00
609.53	4416.00
609.99	4298.00
610.44	4294.00
610.90	4348.00
611.35	4259.00
611.81	4446.00
612.26	4310.00
612.72	4210.00
613.17	4372.00
613.63	4218.00
614.08	4182.00
614.54	4155.00
614.99	4150.00
615.45	4176.00
615.90	4180.00
616.36	4134.00
616.81	4172.00
617.27	4148.00
617.72	4182.00
618.18	4100.00
618.63	4109.00
619.09	4106.00
619.54	4180.00
619.99	4094.00
620.45	4146.00
620.90	4178.00
621.36	4118.00
621.81	4158.00
622.27	4138.00
622.72	4100.00
623.18	4098.00
623.63	4088.00
624.08	4154.00
624.54	4054.00
624.99	4034.00
625.45	4070.00
625.90	4038.00
626.35	4094.00
626.81	4072.00
627.26	4036.00
627.72	4088.00
628.17	4092.00
628.62	3994.00
629.08	4034.00
629.53	4042.00
629.99	4017.00
630.44	4062.00
630.89	4060.00
631.35	4118.00
631.80	4072.00
632.26	4120.00
632.71	4068.00
633.16	4026.00
633.62	4002.00
634.07	4046.00
634.52	4024.00
634.98	4006.00
635.43	4060.00
635.88	4014.00
636.34	4029.00
636.79	4040.00
637.24	3995.00
637.70	4061.00
638.15	3993.00
638.60	3971.00
639.06	3980.00
639.51	3874.00
639.96	3882.00
640.42	3988.00
640.87	3981.00
641.32	3858.00
641.78	3872.00
642.23	3874.00
642.68	3792.00
643.14	3844.00
643.59	3886.00
644.04	3832.00
644.49	3780.00
644.95	3798.00
645.40	3794.00
645.85	3771.00
646.31	3774.00
646.76	3780.00
647.21	3832.00
647.66	3762.00
648.12	3781.00
648.57	3684.00
649.02	3806.00
649.47	3802.00
649.93	3962.00
650.38	3706.00
650.83	3717.00
651.28	3742.00
651.74	3739.00
652.19	3672.00
652.64	3741.00
653.09	3710.00
653.55	3713.00
654.00	3744.00
654.45	3750.00
654.90	3736.00
655.35	3684.00
655.81	3747.00
656.26	3670.00
656.71	3684.00
657.16	3708.00
657.62	3741.00
658.07	3692.00
658.52	3712.00
658.97	3714.00
659.42	3966.00
659.88	3713.00
660.33	3704.00
660.78	3656.00
661.23	3648.00
661.68	3694.00
662.13	3710.00
662.59	3597.00
663.04	3724.00
663.49	3659.00
663.94	3620.00
664.39	3630.00
664.84	3604.00
665.30	3678.00
665.75	3614.00
666.20	3656.00
666.65	3670.00
667.10	3752.00
667.55	3750.00
668.00	3586.00
668.46	3652.00
668.91	3574.00
669.36	3750.00
669.81	3499.00
670.26	3584.00
670.71	3700.00
671.16	3602.00
671.61	3729.00
672.06	3777.00
672.52	3636.00
672.97	3582.00
673.42	3700.00
673.87	3816.00
674.32	3640.00
674.77	3644.00
675.22	3553.00
675.67	3570.00
676.12	3652.00
676.57	3613.00
677.02	3619.00
677.47	3604.00
677.93	3752.00
678.38	3574.00
678.83	3608.00
679.28	3620.00
679.73	3620.00
680.18	3582.00
680.63	3627.00
681.08	3583.00
681.53	3558.00
681.98	3608.00
682.43	3620.00
682.88	3712.00
683.33	3710.00
683.78	3690.00
684.23	3717.00
684.68	3698.00
685.13	3682.00
685.58	3759.00
686.03	3656.00
686.48	3648.00
686.93	3682.00
687.38	3719.00
687.83	3714.00
688.28	3728.00
688.73	3920.00
689.18	3842.00
689.63	3792.00
690.08	3844.00
690.53	3865.00
690.98	3848.00
691.43	3996.00
691.88	3948.00
692.33	4086.00
692.78	4192.00
693.23	4316.00
693.68	4372.00
694.13	4450.00
694.58	4548.00
695.03	4930.00
695.48	4816.00
695.93	5013.00
696.38	5200.00
696.83	5366.00
697.28	5484.00
697.72	5678.00
698.17	5833.00
698.62	6094.00
699.07	6306.00
699.52	6486.00
699.97	6718.00
700.42	6964.00
700.87	7295.00
701.32	7668.00
701.77	7702.00
702.22	8064.00
702.67	8324.00
703.11	8692.00
703.56	8982.00
704.01	9304.00
704.46	9635.00
704.91	10180.00
705.36	10396.00
705.81	10660.00
706.26	10894.00
706.70	11370.00
707.15	11656.00
707.60	12068.00
708.05	12502.00
708.50	12886.00
708.95	13136.00
709.40	13510.00
709.84	13890.00
710.29	14204.00
710.74	14654.00
711.19	14894.00
711.64	15294.00
712.09	15778.00
712.53	16054.00
712.98	16490.00
713.43	16863.00
713.88	17191.00
714.33	17654.00
714.78	17569.00
715.22	18036.00
715.67	18302.00
716.12	18412.00
716.57	17966.00
717.02	17758.00
717.46	17656.00
717.91	17690.00
718.36	17670.00
718.81	17796.00
719.26	18131.00
719.70	18680.00
720.15	19058.00
720.60	20228.00
721.05	21720.00
721.49	22707.00
721.94	23378.00
722.39	23610.00
722.84	23226.00
723.28	22712.00
723.73	22815.00
724.18	23076.00
724.63	23790.00
725.07	24044.00
725.52	24852.00
725.97	25274.00
726.42	25748.00
726.86	26386.00
727.31	26110.00
727.76	26840.00
728.21	27484.00
728.65	27726.00
729.10	27848.00
729.55	28615.00
729.99	29473.00
730.44	29842.00
730.89	30534.00
731.33	31370.00
731.78	32193.00
732.23	33225.00
732.68	33860.00
733.12	34640.00
733.57	35560.00
734.02	36279.00
734.46	36750.00
734.91	37067.00
735.36	37380.00
735.80	37934.00
736.25	38108.00
736.70	38807.00
737.14	39502.00
737.59	39902.00
738.04	39760.00
738.48	39688.00
738.93	40212.00
739.37	40724.00
739.82	41646.00
740.27	42058.00
740.71	42078.00
741.16	42256.00
741.61	42658.00
742.05	42868.00
742.50	43223.00
742.94	43749.00
743.39	44208.00
743.84	44253.00
744.28	44195.00
744.73	44548.00
745.18	45016.00
745.62	45845.00
746.07	45751.00
746.51	45686.00
746.96	45776.00
747.40	45738.00
747.85	45804.00
748.30	45946.00
748.74	46054.00
749.19	45968.00
749.63	45962.00
750.08	46406.00
750.52	46110.00
750.97	46380.00
751.42	46479.00
751.86	46524.00
752.31	46452.00
752.75	46588.00
753.20	46469.00
753.64	46464.00
754.09	46722.00
754.53	47110.00
754.98	46969.00
755.42	47000.00
755.87	46544.00
756.31	46624.00
756.76	46338.00
757.20	46170.00
757.65	45704.00
758.09	45058.00
758.54	43472.00
758.98	38422.00
759.43	30556.00
759.87	22008.00
760.32	17396.00
760.76	17446.00
761.21	21300.00
761.65	25690.00
762.10	26761.00
762.54	25256.00
762.99	24222.00
763.43	24964.00
763.88	26410.00
764.32	28712.00
764.77	31258.00
765.21	33321.00
765.66	35299.00
766.10	36894.00
766.54	38870.00
766.99	40676.00
767.43	41936.00
767.88	42950.00
768.32	43851.00
768.77	44372.00
769.21	44992.00
769.66	45620.00
770.10	46176.00
770.54	46444.00
770.99	46518.00
771.43	46443.00
771.88	46398.00
772.32	46394.00
772.76	46320.00
773.21	46218.00
773.65	46188.00
774.10	45904.00
774.54	45814.00
774.98	45760.00
775.43	46524.00
775.87	46988.00
776.31	47080.00
776.76	46728.00
777.20	46716.00
777.65	46330.00
778.09	46096.00
778.53	46030.00
778.98	45596.00
779.42	45856.00
779.86	45516.00
780.31	45822.00
780.75	45660.00
781.19	46005.00
781.64	46380.00
782.08	46204.00
782.52	46256.00
782.97	45748.00
783.41	45479.00
783.85	45028.00
784.30	45030.00
784.74	44691.00
785.18	44590.00
785.63	44417.00
786.07	44748.00
786.51	44811.00
786.95	45038.00
787.40	44664.00
787.84	44170.00
788.28	44098.00
788.73	43932.00
789.17	43584.00
789.61	43066.00
790.05	42868.00
790.50	42648.00
790.94	42506.00
791.38	42438.00
791.82	42528.00
792.27	42435.00
792.71	42707.00
793.15	42896.00
793.59	42720.00
794.04	42698.00
794.48	42466.00
794.92	41923.00
795.36	41776.00
795.81	41205.00
796.25	41118.00
796.69	41258.00
797.13	41868.00
797.57	42232.00
798.02	42371.00
798.46	42678.00
798.90	42450.00
799.34	41830.00
799.79	41775.00
800.23	40966.00
800.67	40575.00
801.11	40526.00
801.55	40468.00
801.99	40370.00
802.44	40284.00
802.88	40527.00
803.32	40687.00
803.76	40980.00
804.20	41197.00
804.64	41224.00
805.09	41056.00
805.53	41300.00
805.97	40905.00
806.41	40510.00
806.85	39888.00
807.29	39580.00
807.74	39232.00
808.18	39352.00
808.62	39307.00
809.06	39238.00
809.50	39412.00
809.94	39432.00
810.38	39605.00
810.82	39764.00
811.27	39375.00
811.71	38778.00
812.15	37910.00
812.59	36964.00
813.03	35938.00
813.47	34964.00
813.91	34028.00
814.35	33446.00
814.79	33238.00
815.23	32906.00
815.67	32628.00
816.12	32936.00
816.56	32496.00
817.00	32608.00
817.44	33386.00
817.88	33074.00
818.32	32702.00
818.76	32834.00
819.20	32870.00
819.64	33356.00
820.08	33578.00
820.52	34442.00
820.96	34910.00
821.40	34193.00
821.84	33024.00
822.28	31532.00
822.72	31370.00
823.16	31188.00
823.60	33158.00
824.04	35036.00
824.48	35520.00
824.92	35578.00
825.36	35493.00
825.80	34836.00
826.24	34592.00
826.68	34193.00
827.12	34220.00
827.56	33552.00
828.00	33485.00
828.44	33744.00
828.88	34478.00
829.32	34738.00
829.76	34728.00
830.20	35207.00
830.64	34836.00
831.08	34761.00
831.52	34199.00
831.96	33725.00
832.40	33260.00
832.84	33690.00
833.28	33816.00
833.72	34785.00
834.16	35213.00
834.60	35996.00
835.04	36562.00
835.48	36760.00
835.91	36864.00
836.35	36624.00
836.79	36360.00
837.23	36050.00
837.67	35794.00
838.11	35560.00
838.55	35696.00
838.99	35478.00
839.43	35741.00
839.87	36168.00
840.30	36660.00
840.74	37014.00
841.18	37444.00
841.62	37858.00
842.06	37736.00
842.50	37646.00
842.94	37234.00
843.38	36700.00
843.81	36180.00
844.25	35884.00
844.69	35450.00
845.13	35520.00
845.57	35636.00
846.01	35606.00
846.45	35740.00
846.88	36308.00
847.32	36718.00
847.76	37296.00
848.20	37288.00
848.64	36950.00
849.08	36240.00
849.51	36384.00
849.95	35394.00
850.39	35712.00
850.83	35996.00
851.27	35715.00
851.70	35176.00
852.14	35003.00
852.58	34202.00
853.02	33155.00
853.46	32260.00
853.89	32269.00
854.33	32060.00
854.77	33654.00
855.21	35776.00
855.65	36652.00
856.08	37085.00
856.52	37265.00
856.96	37100.00
857.40	36145.00
857.83	35892.00
858.27	35194.00
858.71	34592.00
859.15	34632.00
859.58	34706.00
860.02	35134.00
860.46	35532.00
860.89	36104.00
861.33	36453.00
861.77	36948.00
862.21	37222.00
862.64	37384.00
863.08	37200.00
863.52	36912.00
863.95	36200.00
864.39	35475.00
864.83	34092.00
865.27	32654.00
865.70	32618.00
866.14	31678.00
866.58	32033.00
867.01	33402.00
867.45	34614.00
867.89	35418.00
868.32	36112.00
868.76	36372.00
869.20	36704.00
869.63	36828.00
870.07	36192.00
870.51	35448.00
870.94	34870.00
871.38	33854.00
871.82	33179.00
872.25	33216.00
872.69	32946.00
873.13	33132.00
873.56	33576.00
874.00	34060.00
874.43	34466.00
874.87	35042.00
875.31	35281.00
875.74	35680.00
876.18	35718.00
876.61	35880.00
877.05	35410.00
877.49	35006.00
877.92	34612.00
878.36	34086.00
878.79	33368.00
879.23	32628.00
879.67	32170.00
880.10	32326.00
880.54	32212.00
880.97	32742.00
881.41	33750.00
881.84	34402.00
882.28	35056.00
882.72	35597.00
883.15	36140.00
883.59	36112.00
884.02	36113.00
884.46	35828.00
884.89	35036.00
885.33	34439.00
885.76	33556.00
886.20	32648.00
886.63	32496.00
887.07	32290.00
887.50	32174.00
887.94	32274.00
888.37	32456.00
888.81	33242.00
889.24	33159.00
889.68	33806.00
890.11	34184.00
890.55	34298.00
890.98	34718.00
891.42	34730.00
891.85	34515.00
892.29	34228.00
892.72	33484.00
893.16	32438.00
893.59	31807.00
894.03	30786.00
894.46	29584.00
894.90	28520.00
895.33	27439.00
895.77	27726.00
896.20	27187.00
896.63	27406.00
897.07	27402.00
897.50	27244.00
897.94	27738.00
898.37	28658.00
898.81	26544.00
899.24	26814.00
899.68	28488.00
900.11	27599.00
900.54	27006.00
900.98	26626.00
901.41	26568.00
901.85	26610.00
902.28	26831.00
902.71	27044.00
903.15	27990.00
903.58	28796.00
904.02	28652.00
904.45	28676.00
904.88	28502.00
905.32	28349.00
905.75	27916.00
906.18	27414.00
906.62	27376.00
907.05	26960.00
907.48	27018.00
907.92	26646.00
908.35	26870.00
908.79	26364.00
909.22	26328.00
909.65	25766.00
910.09	25888.00
910.52	25182.00
910.95	25696.00
911.38	25376.00
911.82	24586.00
912.25	25250.00
912.68	25638.00
913.12	25580.00
913.55	25743.00
913.98	26458.00
914.42	27698.00
914.85	27866.00
915.28	26512.00
915.72	26449.00
916.15	26120.00
916.58	26096.00
917.01	25206.00
917.45	24672.00
917.88	25442.00
918.31	25770.00
918.74	26572.00
919.18	26706.00
919.61	27008.00
920.04	27226.00
920.47	27558.00
920.91	27871.00
921.34	27536.00
921.77	27984.00
922.20	28454.00
922.64	28354.00
923.07	28226.00
923.50	27888.00
923.93	27210.00
924.37	27144.00
924.80	26726.00
925.23	26266.00
925.66	25264.00
926.09	24096.00
926.53	23688.00
926.96	22738.00
927.39	21872.00
927.82	20676.00
928.25	19890.00
928.69	19594.00
929.12	19122.00
929.55	18201.00
929.98	17596.00
930.41	16488.00
930.84	15730.00
931.28	14644.00
931.71	13484.00
932.14	12314.00
932.57	11935.00
933.00	11258.00
933.43	10942.00
933.86	10200.00
934.30	9987.00
934.73	11122.00
935.16	10328.00
935.59	9894.00
936.02	10478.00
936.45	10220.00
936.88	10290.00
937.31	11300.00
937.75	11736.00
938.18	12210.00
938.61	12930.00
939.04	13464.00
939.47	13112.00
939.90	12376.00
940.33	11939.00
940.76	11088.00
941.19	10707.00
941.62	10548.00
942.05	10222.00
942.48	9194.00
942.91	9470.00
943.35	9892.00
943.78	9184.00
944.21	9240.00
944.64	10000.00
945.07	9980.00
945.50	9908.00
945.93	10162.00
946.36	10504.00
946.79	10954.00
947.22	11451.00
947.65	11037.00
948.08	10620.00
948.51	11620.00
948.94	11660.00
949.37	11258.00
949.80	10734.00
950.23	11060.00
950.66	11491.00
951.09	11328.00
951.52	10854.00
951.95	10952.00
952.38	11396.00
952.81	12038.00
953.24	12584.00
953.67	12640.00
954.10	12628.00
954.53	13048.00
954.96	13028.00
955.39	13610.00
955.82	14302.00
956.25	13608.00
956.68	14100.00
957.11	14372.00
957.53	13604.00
957.96	13707.00
958.39	13368.00
958.82	12846.00
959.25	13313.00
959.68	14006.00
960.11	14066.00
960.54	14204.00
960.97	15088.00
961.40	15505.00
961.83	15128.00
962.26	15800.00
962.68	16894.00
963.11	17090.00
963.54	17236.00
963.97	17322.00
964.40	17372.00
964.83	17873.00
965.26	18044.00
965.69	17802.00
966.11	17576.00
966.54	17866.00
966.97	18556.00
967.40	18702.00
967.83	18720.00
968.26	18710.00
968.69	18764.00
969.11	18842.00
969.54	18662.00
969.97	18862.00
970.40	19174.00
970.83	19248.00
971.26	19332.00
971.68	19258.00
972.11	19534.00
972.54	19908.00
972.97	19656.00
973.40	19564.00
973.82	19522.00
974.25	19466.00
974.68	19182.00
975.11	19010.00
975.54	18674.00
975.96	18432.00
976.39	18420.00
976.82	18435.00
977.25	18086.00
977.67	18151.00
978.10	18340.00
978.53	18461.00
978.96	19016.00
979.38	19230.00
979.81	19528.00
980.24	20170.00
980.67	20482.00
981.09	20786.00
981.52	20932.00
981.95	20960.00
982.38	21181.00
982.80	21374.00
983.23	21522.00
983.66	21524.00
984.08	21330.00
984.51	21192.00
984.94	20994.00
985.37	20762.00
985.79	20480.00
986.22	20034.00
986.65	19648.00
987.07	19540.00
987.50	19524.00
987.93	19576.00
988.35	19410.00
988.78	19714.00
989.21	19846.00
989.63	20280.00
990.06	20472.00
990.49	20624.00
990.91	21224.00
991.34	21202.00
991.77	21288.00
992.19	21394.00
992.62	21268.00
993.05	21192.00
993.47	20944.00
993.90	20834.00
994.32	20498.00
994.75	20010.00
995.18	19784.00
995.60	19544.00
996.03	19202.00
996.45	19106.00
996.88	18860.00
997.31	18782.00
997.73	18842.00
998.16	18804.00
998.58	18956.00
999.01	19014.00
999.44	19310.00
999.86	19690.00
1000.29	19708.00
1000.71	19879.00
1001.14	20044.00
1001.56	19824.00
1001.99	19897.00
1002.41	19452.00
1002.84	19176.00
1003.27	18810.00
1003.69	18562.00
1004.12	18055.00
1004.54	17802.00
1004.97	17592.00
1005.39	17252.00
1005.82	17183.00
1006.24	17246.00
1006.67	16908.00
1007.09	16970.00
1007.52	16910.00
1007.94	17026.00
1008.37	17155.00
1008.79	17180.00
1009.22	17158.00
1009.64	17326.00
1010.07	17313.00
1010.49	17386.00
1010.92	17364.00
1011.34	17484.00
1011.77	17530.00
1012.19	17506.00
1012.62	17336.00
1013.04	17012.00
1013.46	16704.00
1013.89	16200.00
1014.31	16269.00
1014.74	15736.00
1015.16	15706.00
1015.59	15543.00
1016.01	15534.00
1016.44	15530.00
1016.86	16900.00
1017.28	15684.00
1017.71	15646.00
1018.13	16172.00
1018.56	16090.00
1018.98	16236.00
1019.40	16301.00
1019.83	16382.00
1020.25	16446.00
1020.68	16634.00
1021.10	16670.00
1021.52	16748.00
1021.95	17079.00
1022.37	16843.00
1022.79	16808.00
1023.22	16784.00
1023.64	16726.00
1024.07	16355.00
1024.49	16153.00
1024.91	15755.00
1025.34	15816.00
1025.76	15690.00
1026.18	15554.00
1026.61	15374.00
1027.03	15288.00
1027.45	15360.00
1027.88	15358.00
1028.30	15563.00
1028.72	15598.00
1029.15	15638.00
1029.57	15700.00
1029.99	15810.00
1030.41	15710.00
1030.84	15833.00
1031.26	15780.00
1031.68	15542.00
1032.11	15480.00
1032.53	15300.00
1032.95	15057.00
1033.37	14908.00
1033.80	14744.00
1034.22	14582.00
1034.64	14332.00
1035.06	14048.00
1035.49	13840.00
1035.91	13743.00
1036.33	13458.00
1036.75	13502.00
1037.18	13422.00
1037.60	13284.00
1038.02	13378.00
1038.44	13352.00
1038.87	13291.00
1039.29	13342.00
1039.71	13446.00
1040.13	13422.00
1040.55	13541.00
1040.98	13566.00
1041.40	13362.00
1041.82	13306.00
1042.24	13054.00
1042.66	13030.00
1043.09	12836.00
1043.51	12610.00
1043.93	12478.00
1044.35	12224.00
1044.77	12144.00
1045.20	12029.00
1045.62	11796.00
1046.04	11654.00
1046.46	11608.00
1046.88	11376.00
1047.30	11380.00
1047.72	11228.00
1048.15	11308.00
1048.57	11002.00
1048.99	11051.00
1049.41	11062.00
1049.83	11036.00
1050.25	11098.00
1050.67	11036.00
1051.09	10938.00
1051.52	10994.00
1051.94	10758.00
1052.36	10952.00
1052.78	10746.00
1053.20	10650.00
1053.62	10608.00
1054.04	10473.00
1054.46	10518.00
1054.88	10386.00
1055.30	10316.00
1055.72	10100.00
1056.14	9981.00
1056.57	10148.00
1056.99	9726.00
1057.41	9668.00
1057.83	9594.00
1058.25	9472.00
1058.67	9380.00
1059.09	9243.00
1059.51	9236.00
1059.93	9066.00
1060.35	9028.00
1060.77	8980.00
1061.19	9012.00
1061.61	8852.00
1062.03	8814.00
1062.45	8768.00
1062.87	8802.00
1063.29	8812.00
1063.71	8748.00
1064.13	8635.00
1064.55	8570.00
1064.97	8644.00
1065.39	8522.00
1065.81	8456.00
1066.23	8318.00
1066.65	8240.00
1067.07	8280.00
1067.49	8210.00
1067.91	8011.00
1068.33	7930.00
1068.75	7982.00
1069.17	7970.00
1069.59	7860.00
1070.00	7756.00
1070.42	7744.00
1070.84	7598.00
1071.26	7438.00
1071.68	7522.00
1072.10	7616.00
1072.52	7452.00
1072.94	7380.00
1073.36	7411.00
1073.78	7406.00
1074.20	7371.00
1074.62	7398.00
1075.03	7304.00
1075.45	7288.00
1075.87	7308.00
1076.29	7280.00
1076.71	7272.00
1077.13	7242.00
1077.55	7056.00
1077.97	7115.00
1078.38	7004.00
1078.80	6940.00
1079.22	6913.00
1079.64	6776.00
1080.06	6804.00
1080.48	6748.00
1080.89	6682.00
1081.31	6544.00
1081.73	6536.00
1082.15	6530.00
1082.57	6508.00
1082.99	6412.00
1083.40	6347.00
1083.82	6426.00
1084.24	6276.00
1084.66	6308.00
1085.08	6252.00
1085.49	6226.00
1085.91	6290.00
1086.33	7606.00
1086.75	6142.00
1087.17	6162.00
1087.58	6179.00
1088.00	6130.00
1088.42	6164.00
1088.84	6075.00
1089.25	5952.00
1089.67	6006.00
1090.09	5922.00
1090.51	5775.00
1090.92	5835.00
1091.34	5720.00
1091.76	5728.00
1092.18	5682.00
1092.59	5570.00
1093.01	5569.00
1093.43	5578.00
1093.84	5512.00
1094.26	5372.00
1094.68	5426.00
1095.10	5298.00
1095.51	5373.00
1095.93	5263.00
1096.35	5333.00
1096.76	5291.00
1097.18	5324.00
1097.60	5208.00
1098.01	5236.00
1098.43	5190.00
1098.85	5149.00
1099.26	5074.00
1099.68	5058.00
1100.10	4992.00
1100.51	4902.00
1100.93	4882.00
1101.35	4914.00
1101.76	4838.00
1102.18	5344.00
1102.60	4856.00
1103.01	4702.00
1103.43	4712.00
1103.84	4706.00
1104.26	4660.00
1104.68	4684.00
1105.09	4570.00
1105.51	4580.00
1105.92	4608.00
1106.34	4492.00
1106.76	4514.00
1107.17	4478.00
1107.59	4446.00
1108.00	4332.00
1108.42	4379.00
1108.83	4257.00
1109.25	4302.00
1109.67	4234.00
1110.08	4228.00
1110.50	4158.00
1110.91	4232.00
1111.33	4144.00
1111.74	4095.00
1112.16	4100.00
1112.57	4110.00
1112.99	3988.00
1113.41	3964.00
1113.82	3912.00
1114.24	3889.00
1114.65	3793.00
1115.07	3678.00
1115.48	3542.00
1115.90	2183.00
1116.31	2219.00
1116.73	2220.00
1117.14	2221.00
>>>>>End Processed Spectral Data<<<<<
