SpectraSuite Data File
++++++++++++++++++++++++++++++++++++
Date: Tue May 29 13:19:50 EEST 2018
User: CanSEE
Dark Spectrum Present: No
Reference Spectrum Present: No
Number of Sampled Component Spectra: 1
Spectrometers: MAYP11278
Integration Time (usec): 220000 (MAYP11278)
Spectra Averaged: 1 (MAYP11278)
Boxcar Smoothing: 0 (MAYP11278)
Correct for Electrical Dark: No (MAYP11278)
Strobe/Lamp Enabled: No (MAYP11278)
Correct for Detector Non-linearity: No (MAYP11278)
Correct for Stray Light: No (MAYP11278)
Number of Pixels in Processed Spectrum: 2068
>>>>>Begin Processed Spectral Data<<<<<
187.82	2347.00
188.30	2242.00
188.78	2221.00
189.26	2216.00
189.73	3392.00
190.21	3536.00
190.69	3672.00
191.17	3720.00
191.64	3761.00
192.12	3664.00
192.60	3664.00
193.07	3631.00
193.55	3715.00
194.03	3648.00
194.51	3690.00
194.98	3634.00
195.46	3702.00
195.94	3672.00
196.42	3688.00
196.89	3810.00
197.37	3682.00
197.85	3618.00
198.32	3656.00
198.80	3644.00
199.28	3733.00
199.76	3712.00
200.23	3636.00
200.71	3676.00
201.19	3757.00
201.66	3733.00
202.14	3726.00
202.62	3652.00
203.09	3680.00
203.57	3650.00
204.05	3715.00
204.53	3779.00
205.00	3656.00
205.48	3608.00
205.96	3753.00
206.43	3702.00
206.91	3652.00
207.39	3815.00
207.86	3694.00
208.34	3686.00
208.82	3688.00
209.29	3718.00
209.77	3707.00
210.25	3698.00
210.72	3710.00
211.20	3694.00
211.68	3686.00
212.15	3658.00
212.63	3768.00
213.11	3702.00
213.58	3664.00
214.06	3777.00
214.53	3719.00
215.01	3774.00
215.49	3706.00
215.96	3705.00
216.44	3737.00
216.92	3706.00
217.39	3648.00
217.87	3721.00
218.35	3731.00
218.82	3616.00
219.30	3676.00
219.77	3692.00
220.25	3674.00
220.73	3812.00
221.20	3698.00
221.68	3774.00
222.15	3698.00
222.63	3716.00
223.11	3676.00
223.58	3720.00
224.06	3686.00
224.53	3658.00
225.01	3628.00
225.49	3704.00
225.96	3680.00
226.44	3690.00
226.91	3736.00
227.39	3658.00
227.87	3775.00
228.34	3715.00
228.82	3746.00
229.29	3676.00
229.77	3702.00
230.24	3700.00
230.72	3756.00
231.20	3740.00
231.67	3720.00
232.15	3746.00
232.62	3646.00
233.10	3740.00
233.57	3739.00
234.05	3918.00
234.53	3728.00
235.00	3678.00
235.48	3688.00
235.95	3690.00
236.43	3767.00
236.90	3775.00
237.38	3690.00
237.85	3720.00
238.33	3676.00
238.80	3739.00
239.28	3664.00
239.75	3688.00
240.23	3732.00
240.71	3729.00
241.18	3732.00
241.66	3692.00
242.13	3702.00
242.61	3743.00
243.08	3648.00
243.56	3680.00
244.03	3757.00
244.51	3818.00
244.98	3702.00
245.46	3786.00
245.93	5578.00
246.41	3646.00
246.88	3781.00
247.36	3721.00
247.83	3716.00
248.31	3744.00
248.78	3686.00
249.26	3728.00
249.73	3793.00
250.21	3726.00
250.68	3784.00
251.16	3727.00
251.63	3812.00
252.10	3805.00
252.58	3684.00
253.05	3807.00
253.53	3722.00
254.00	3726.00
254.48	3749.00
254.95	3735.00
255.43	3763.00
255.90	3720.00
256.38	3747.00
256.85	3778.00
257.33	3764.00
257.80	3902.00
258.27	3738.00
258.75	3652.00
259.22	3696.00
259.70	3768.00
260.17	3764.00
260.65	3686.00
261.12	3712.00
261.59	3768.00
262.07	3679.00
262.54	3752.00
263.02	3722.00
263.49	3634.00
263.97	3794.00
264.44	3731.00
264.91	3713.00
265.39	3776.00
265.86	3774.00
266.34	3788.00
266.81	3680.00
267.28	3715.00
267.76	3758.00
268.23	3694.00
268.71	3656.00
269.18	3660.00
269.65	3670.00
270.13	3730.00
270.60	3770.00
271.08	3727.00
271.55	3745.00
272.02	3682.00
272.50	3694.00
272.97	3640.00
273.44	3724.00
273.92	3873.00
274.39	3759.00
274.87	3728.00
275.34	3682.00
275.81	3704.00
276.29	3714.00
276.76	3716.00
277.23	3630.00
277.71	3652.00
278.18	3612.00
278.65	3830.00
279.13	3602.00
279.60	3710.00
280.07	4000.00
280.55	3908.00
281.02	3995.00
281.50	3798.00
281.97	3865.00
282.44	3791.00
282.91	3750.00
283.39	3776.00
283.86	3737.00
284.33	3676.00
284.81	3780.00
285.28	3726.00
285.75	3768.00
286.23	3793.00
286.70	3690.00
287.17	3741.00
287.65	3856.00
288.12	3752.00
288.59	3781.00
289.07	3652.00
289.54	3830.00
290.01	3698.00
290.48	3750.00
290.96	3744.00
291.43	3759.00
291.90	3877.00
292.38	3708.00
292.85	3808.00
293.32	3743.00
293.79	3773.00
294.27	3806.00
294.74	3686.00
295.21	3789.00
295.69	3815.00
296.16	3864.00
296.63	3812.00
297.10	3712.00
297.58	3792.00
298.05	3805.00
298.52	3720.00
298.99	3862.00
299.47	3779.00
299.94	3760.00
300.41	3736.00
300.88	3804.00
301.36	3801.00
301.83	3775.00
302.30	3692.00
302.77	3787.00
303.25	3761.00
303.72	3722.00
304.19	3698.00
304.66	3676.00
305.13	3765.00
305.61	3779.00
306.08	3759.00
306.55	3780.00
307.02	3708.00
307.49	3718.00
307.97	3754.00
308.44	3749.00
308.91	3778.00
309.38	3825.00
309.86	3773.00
310.33	3745.00
310.80	3786.00
311.27	3726.00
311.74	3819.00
312.21	3764.00
312.69	3818.00
313.16	3715.00
313.63	3744.00
314.10	3762.00
314.57	3752.00
315.05	3716.00
315.52	3853.00
315.99	3802.00
316.46	3791.00
316.93	3778.00
317.40	3764.00
317.88	3916.00
318.35	3771.00
318.82	3755.00
319.29	3694.00
319.76	3830.00
320.23	3855.00
320.70	3828.00
321.18	3752.00
321.65	3700.00
322.12	3702.00
322.59	3843.00
323.06	3738.00
323.53	3912.00
324.00	3729.00
324.48	3811.00
324.95	3740.00
325.42	3757.00
325.89	3753.00
326.36	3741.00
326.83	3838.00
327.30	3858.00
327.77	3822.00
328.24	3785.00
328.72	3786.00
329.19	3750.00
329.66	3786.00
330.13	3764.00
330.60	3828.00
331.07	3781.00
331.54	3936.00
332.01	3729.00
332.48	3882.00
332.95	3806.00
333.43	3794.00
333.90	3809.00
334.37	3792.00
334.84	3770.00
335.31	3956.00
335.78	3725.00
336.25	3761.00
336.72	3731.00
337.19	3812.00
337.66	3773.00
338.13	3764.00
338.60	3851.00
339.07	3827.00
339.54	3684.00
340.01	3731.00
340.49	3724.00
340.96	3821.00
341.43	3818.00
341.90	3725.00
342.37	3774.00
342.84	3786.00
343.31	3777.00
343.78	3766.00
344.25	3770.00
344.72	3724.00
345.19	3791.00
345.66	3745.00
346.13	3790.00
346.60	3726.00
347.07	3869.00
347.54	3778.00
348.01	3852.00
348.48	3769.00
348.95	3702.00
349.42	3785.00
349.89	3789.00
350.36	3781.00
350.83	3744.00
351.30	3782.00
351.77	3914.00
352.24	3816.00
352.71	3781.00
353.18	3773.00
353.65	3866.00
354.12	3795.00
354.59	3832.00
355.06	3822.00
355.53	3856.00
356.00	3752.00
356.47	3876.00
356.94	3771.00
357.41	3962.00
357.88	3818.00
358.35	3726.00
358.82	3769.00
359.28	3777.00
359.75	3723.00
360.22	3858.00
360.69	3882.00
361.16	3812.00
361.63	3768.00
362.10	3826.00
362.57	3782.00
363.04	3798.00
363.51	3924.00
363.98	3830.00
364.45	3717.00
364.92	3820.00
365.39	3756.00
365.86	3708.00
366.32	3783.00
366.79	3802.00
367.26	4876.00
367.73	4138.00
368.20	3728.00
368.67	3851.00
369.14	3720.00
369.61	3841.00
370.08	3816.00
370.55	3741.00
371.02	4552.00
371.48	3784.00
371.95	3776.00
372.42	3718.00
372.89	3780.00
373.36	3780.00
373.83	3722.00
374.30	3747.00
374.77	3814.00
375.23	3741.00
375.70	3844.00
376.17	3747.00
376.64	3713.00
377.11	3726.00
377.58	3811.00
378.05	3809.00
378.51	3754.00
378.98	3781.00
379.45	3816.00
379.92	3798.00
380.39	3944.00
380.86	3803.00
381.33	3833.00
381.79	3843.00
382.26	3718.00
382.73	3844.00
383.20	3782.00
383.67	3820.00
384.14	3796.00
384.60	4071.00
385.07	3820.00
385.54	3773.00
386.01	3794.00
386.48	3887.00
386.94	3731.00
387.41	3725.00
387.88	3858.00
388.35	3794.00
388.82	3835.00
389.28	3762.00
389.75	3832.00
390.22	3870.00
390.69	3822.00
391.16	3799.00
391.62	3806.00
392.09	3775.00
392.56	3768.00
393.03	3822.00
393.50	3878.00
393.96	3794.00
394.43	3865.00
394.90	3779.00
395.37	3846.00
395.83	4003.00
396.30	3762.00
396.77	3838.00
397.24	3846.00
397.70	3755.00
398.17	3775.00
398.64	3741.00
399.11	3757.00
399.57	3856.00
400.04	3744.00
400.51	3834.00
400.98	3793.00
401.44	3834.00
401.91	3798.00
402.38	3834.00
402.84	3778.00
403.31	3910.00
403.78	3786.00
404.25	3878.00
404.71	3910.00
405.18	3878.00
405.65	3716.00
406.12	3839.00
406.58	3854.00
407.05	3944.00
407.52	3811.00
407.98	4142.00
408.45	3853.00
408.92	3729.00
409.38	3864.00
409.85	3757.00
410.32	3838.00
410.78	3790.00
411.25	3944.00
411.72	3790.00
412.18	3755.00
412.65	3827.00
413.12	3764.00
413.59	3796.00
414.05	3867.00
414.52	3897.00
414.98	3778.00
415.45	3883.00
415.92	3834.00
416.38	3809.00
416.85	3912.00
417.32	3816.00
417.78	3807.00
418.25	3813.00
418.72	3837.00
419.18	3880.00
419.65	3792.00
420.12	3820.00
420.58	3781.00
421.05	3828.00
421.51	3788.00
421.98	3872.00
422.45	3778.00
422.91	3846.00
423.38	3841.00
423.85	3796.00
424.31	3835.00
424.78	3879.00
425.24	3869.00
425.71	3898.00
426.18	3774.00
426.64	3910.00
427.11	3842.00
427.57	3824.00
428.04	3732.00
428.51	3823.00
428.97	3821.00
429.44	3840.00
429.90	3872.00
430.37	3974.00
430.83	3750.00
431.30	3788.00
431.77	3918.00
432.23	3912.00
432.70	3832.00
433.16	3804.00
433.63	3858.00
434.09	3814.00
434.56	3857.00
435.03	3773.00
435.49	3864.00
435.96	3846.00
436.42	3779.00
436.89	3862.00
437.35	3801.00
437.82	3855.00
438.28	3796.00
438.75	3771.00
439.21	4010.00
439.68	3886.00
440.14	3849.00
440.61	3928.00
441.07	3794.00
441.54	3816.00
442.00	3994.00
442.47	3800.00
442.94	3860.00
443.40	3874.00
443.87	3788.00
444.33	3914.00
444.80	3820.00
445.26	3848.00
445.73	3859.00
446.19	3844.00
446.65	3844.00
447.12	3850.00
447.58	3765.00
448.05	3776.00
448.51	3876.00
448.98	3881.00
449.44	3852.00
449.91	3821.00
450.37	3792.00
450.84	3848.00
451.30	3869.00
451.77	3934.00
452.23	3735.00
452.70	3888.00
453.16	3834.00
453.62	3825.00
454.09	3857.00
454.55	3840.00
455.02	3826.00
455.48	3796.00
455.95	3899.00
456.41	3798.00
456.88	3896.00
457.34	3838.00
457.80	3806.00
458.27	3779.00
458.73	3844.00
459.20	3851.00
459.66	3871.00
460.13	3814.00
460.59	3783.00
461.05	3900.00
461.52	3824.00
461.98	3737.00
462.45	3768.00
462.91	3854.00
463.37	3756.00
463.84	3763.00
464.30	3777.00
464.76	3752.00
465.23	3756.00
465.69	3812.00
466.16	3771.00
466.62	3745.00
467.08	3765.00
467.55	3734.00
468.01	3764.00
468.48	3766.00
468.94	3744.00
469.40	3682.00
469.87	3782.00
470.33	3739.00
470.79	3708.00
471.26	3704.00
471.72	3718.00
472.18	3634.00
472.65	3656.00
473.11	3789.00
473.57	3726.00
474.04	3688.00
474.50	3680.00
474.96	3675.00
475.43	3684.00
475.89	3672.00
476.35	3702.00
476.82	3696.00
477.28	3688.00
477.74	3757.00
478.21	3738.00
478.67	3757.00
479.13	3642.00
479.59	3783.00
480.06	3680.00
480.52	3736.00
480.98	3636.00
481.45	3710.00
481.91	3674.00
482.37	3631.00
482.84	3672.00
483.30	3614.00
483.76	3680.00
484.22	3760.00
484.69	3690.00
485.15	3706.00
485.61	3624.00
486.07	3660.00
486.54	3586.00
487.00	3708.00
487.46	3646.00
487.92	3624.00
488.39	3666.00
488.85	3746.00
489.31	3676.00
489.77	3696.00
490.24	3572.00
490.70	3676.00
491.16	3618.00
491.62	3648.00
492.09	3586.00
492.55	3732.00
493.01	3704.00
493.47	3678.00
493.94	3718.00
494.40	3682.00
494.86	3676.00
495.32	3702.00
495.78	3710.00
496.25	3646.00
496.71	3692.00
497.17	3824.00
497.63	3766.00
498.09	3658.00
498.56	3686.00
499.02	3700.00
499.48	3827.00
499.94	3720.00
500.40	3704.00
500.87	3708.00
501.33	3738.00
501.79	3748.00
502.25	3738.00
502.71	4108.00
503.17	3762.00
503.64	3820.00
504.10	3750.00
504.56	3802.00
505.02	3786.00
505.48	3794.00
505.94	3865.00
506.40	3860.00
506.87	3818.00
507.33	3914.00
507.79	3860.00
508.25	3808.00
508.71	3867.00
509.17	3874.00
509.63	3904.00
510.10	3944.00
510.56	3946.00
511.02	4045.00
511.48	4066.00
511.94	3976.00
512.40	3954.00
512.86	4018.00
513.32	4108.00
513.78	3980.00
514.25	4120.00
514.71	4862.00
515.17	4084.00
515.63	4166.00
516.09	4178.00
516.55	4148.00
517.01	4255.00
517.47	4226.00
517.93	4204.00
518.39	4424.00
518.85	4310.00
519.32	4310.00
519.78	4320.00
520.24	4346.00
520.70	4426.00
521.16	4493.00
521.62	4506.00
522.08	4557.00
522.54	4587.00
523.00	4710.00
523.46	4746.00
523.92	4652.00
524.38	4856.00
524.84	4772.00
525.30	4798.00
525.76	4854.00
526.22	4690.00
526.68	4714.00
527.14	4814.00
527.60	4853.00
528.06	4974.00
528.52	4988.00
528.98	4974.00
529.44	4978.00
529.90	5000.00
530.36	5085.00
530.82	5022.00
531.28	5118.00
531.74	5090.00
532.20	4980.00
532.66	5046.00
533.12	5134.00
533.58	5096.00
534.04	5058.00
534.50	5144.00
534.96	5210.00
535.42	5244.00
535.88	5188.00
536.34	5250.00
536.80	5150.00
537.26	5232.00
537.72	5250.00
538.18	5245.00
538.64	5374.00
539.10	5248.00
539.56	5458.00
540.02	5138.00
540.48	5253.00
540.94	5236.00
541.40	5216.00
541.86	5316.00
542.32	5290.00
542.78	5226.00
543.24	5420.00
543.69	5294.00
544.15	5392.00
544.61	5372.00
545.07	5300.00
545.53	5270.00
545.99	5364.00
546.45	5311.00
546.91	5398.00
547.37	5326.00
547.83	5356.00
548.29	5302.00
548.74	5332.00
549.20	5348.00
549.66	5464.00
550.12	5372.00
550.58	5291.00
551.04	5403.00
551.50	5374.00
551.96	5507.00
552.42	5386.00
552.87	5342.00
553.33	5354.00
553.79	5366.00
554.25	5311.00
554.71	5430.00
555.17	5414.00
555.63	5450.00
556.08	5344.00
556.54	5372.00
557.00	5210.00
557.46	5303.00
557.92	5440.00
558.38	5220.00
558.83	5234.00
559.29	5194.00
559.75	5202.00
560.21	5150.00
560.67	5244.00
561.13	5222.00
561.58	5080.00
562.04	5160.00
562.50	5114.00
562.96	5178.00
563.42	5162.00
563.87	5080.00
564.33	5106.00
564.79	5112.00
565.25	5031.00
565.71	5026.00
566.16	5060.00
566.62	5030.00
567.08	4992.00
567.54	4944.00
568.00	5006.00
568.45	4924.00
568.91	4895.00
569.37	4924.00
569.83	4856.00
570.28	4814.00
570.74	4822.00
571.20	4797.00
571.66	4781.00
572.11	4790.00
572.57	4760.00
573.03	4764.00
573.49	4680.00
573.94	4738.00
574.40	4772.00
574.86	4664.00
575.32	4594.00
575.77	4636.00
576.23	4550.00
576.69	4712.00
577.15	4554.00
577.60	4556.00
578.06	4525.00
578.52	4564.00
578.97	4560.00
579.43	4476.00
579.89	4561.00
580.34	4529.00
580.80	4522.00
581.26	4524.00
581.72	4532.00
582.17	4496.00
582.63	4504.00
583.09	4462.00
583.54	4511.00
584.00	4442.00
584.46	4505.00
584.91	4485.00
585.37	4532.00
585.83	4414.00
586.28	4397.00
586.74	4372.00
587.20	4430.00
587.65	4428.00
588.11	4270.00
588.57	4304.00
589.02	4277.00
589.48	4244.00
589.94	4316.00
590.39	4349.00
590.85	4286.00
591.30	4356.00
591.76	4428.00
592.22	4292.00
592.67	4344.00
593.13	4311.00
593.59	4366.00
594.04	4366.00
594.50	4238.00
594.95	4338.00
595.41	4264.00
595.87	4244.00
596.32	4385.00
596.78	4310.00
597.23	4350.00
597.69	4326.00
598.15	4251.00
598.60	4309.00
599.06	4358.00
599.51	4266.00
599.97	4298.00
600.43	4316.00
600.88	4331.00
601.34	4333.00
601.79	4236.00
602.25	4410.00
602.70	4252.00
603.16	4306.00
603.61	4246.00
604.07	4186.00
604.53	4298.00
604.98	4246.00
605.44	4292.00
605.89	4303.00
606.35	4168.00
606.80	4278.00
607.26	4198.00
607.71	4190.00
608.17	4208.00
608.62	4174.00
609.08	4317.00
609.53	4242.00
609.99	4178.00
610.44	4192.00
610.90	4190.00
611.35	4142.00
611.81	4267.00
612.26	4182.00
612.72	4122.00
613.17	4280.00
613.63	4084.00
614.08	4050.00
614.54	4048.00
614.99	4092.00
615.45	4099.00
615.90	4142.00
616.36	3948.00
616.81	4065.00
617.27	4004.00
617.72	4118.00
618.18	4052.00
618.63	4027.00
619.09	4050.00
619.54	4064.00
619.99	4029.00
620.45	4118.00
620.90	4084.00
621.36	4030.00
621.81	4104.00
622.27	4138.00
622.72	4060.00
623.18	4010.00
623.63	3966.00
624.08	4104.00
624.54	3964.00
624.99	4014.00
625.45	4045.00
625.90	3956.00
626.35	4015.00
626.81	4030.00
627.26	3952.00
627.72	4035.00
628.17	4024.00
628.62	3954.00
629.08	3988.00
629.53	4006.00
629.99	3996.00
630.44	4015.00
630.89	4014.00
631.35	4014.00
631.80	4026.00
632.26	4006.00
632.71	4000.00
633.16	3974.00
633.62	3932.00
634.07	3964.00
634.52	3954.00
634.98	3999.00
635.43	3966.00
635.88	3940.00
636.34	3976.00
636.79	3960.00
637.24	3912.00
637.70	3990.00
638.15	3983.00
638.60	3964.00
639.06	3873.00
639.51	3910.00
639.96	3872.00
640.42	3946.00
640.87	3990.00
641.32	3880.00
641.78	3871.00
642.23	3876.00
642.68	3786.00
643.14	3860.00
643.59	3891.00
644.04	3809.00
644.49	3787.00
644.95	3802.00
645.40	3774.00
645.85	3837.00
646.31	3836.00
646.76	3816.00
647.21	3844.00
647.66	3760.00
648.12	3817.00
648.57	3710.00
649.02	3844.00
649.47	3753.00
649.93	3994.00
650.38	3738.00
650.83	3752.00
651.28	3799.00
651.74	3812.00
652.19	3727.00
652.64	3759.00
653.09	3721.00
653.55	3708.00
654.00	3763.00
654.45	3752.00
654.90	3692.00
655.35	3650.00
655.81	3754.00
656.26	3668.00
656.71	3743.00
657.16	3741.00
657.62	3730.00
658.07	3704.00
658.52	3690.00
658.97	3682.00
659.42	3950.00
659.88	3662.00
660.33	3769.00
660.78	3725.00
661.23	3650.00
661.68	3692.00
662.13	3602.00
662.59	3620.00
663.04	3716.00
663.49	3632.00
663.94	3676.00
664.39	3624.00
664.84	3620.00
665.30	3658.00
665.75	3631.00
666.20	3670.00
666.65	3638.00
667.10	3777.00
667.55	3702.00
668.00	3586.00
668.46	3640.00
668.91	3628.00
669.36	3730.00
669.81	3554.00
670.26	3612.00
670.71	3702.00
671.16	3642.00
671.61	3736.00
672.06	3754.00
672.52	3600.00
672.97	3620.00
673.42	3686.00
673.87	3793.00
674.32	3610.00
674.77	3644.00
675.22	3567.00
675.67	3572.00
676.12	3646.00
676.57	3618.00
677.02	3662.00
677.47	3596.00
677.93	3759.00
678.38	3624.00
678.83	3628.00
679.28	3672.00
679.73	3620.00
680.18	3602.00
680.63	3646.00
681.08	3576.00
681.53	3553.00
681.98	3606.00
682.43	3640.00
682.88	3715.00
683.33	3678.00
683.78	3663.00
684.23	3754.00
684.68	3684.00
685.13	3702.00
685.58	3700.00
686.03	3630.00
686.48	3650.00
686.93	3676.00
687.38	3668.00
687.83	3688.00
688.28	3674.00
688.73	3878.00
689.18	3809.00
689.63	3704.00
690.08	3798.00
690.53	3802.00
690.98	3797.00
691.43	3846.00
691.88	3852.00
692.33	3940.00
692.78	4006.00
693.23	4065.00
693.68	4158.00
694.13	4097.00
694.58	4134.00
695.03	4440.00
695.48	4240.00
695.93	4303.00
696.38	4502.00
696.83	4456.00
697.28	4514.00
697.72	4616.00
698.17	4622.00
698.62	4740.00
699.07	4806.00
699.52	4848.00
699.97	4940.00
700.42	5042.00
700.87	5128.00
701.32	5346.00
701.77	5107.00
702.22	5340.00
702.67	5370.00
703.11	5407.00
703.56	5578.00
704.01	5652.00
704.46	5769.00
704.91	5956.00
705.36	6054.00
705.81	6048.00
706.26	6070.00
706.70	6174.00
707.15	6260.00
707.60	6396.00
708.05	6558.00
708.50	6658.00
708.95	6708.00
709.40	6724.00
709.84	6882.00
710.29	6918.00
710.74	6984.00
711.19	7097.00
711.64	7220.00
712.09	7250.00
712.53	7364.00
712.98	7624.00
713.43	7566.00
713.88	7688.00
714.33	7782.00
714.78	7818.00
715.22	7770.00
715.67	7961.00
716.12	7766.00
716.57	7650.00
717.02	7494.00
717.46	7400.00
717.91	7522.00
718.36	7569.00
718.81	7390.00
719.26	7480.00
719.70	7664.00
720.15	7716.00
720.60	8020.00
721.05	8577.00
721.49	8828.00
721.94	8867.00
722.39	8998.00
722.84	8812.00
723.28	8578.00
723.73	8622.00
724.18	8666.00
724.63	8836.00
725.07	8938.00
725.52	9032.00
725.97	9303.00
726.42	9430.00
726.86	9582.00
727.31	9386.00
727.76	9596.00
728.21	9678.00
728.65	9659.00
729.10	9806.00
729.55	9985.00
729.99	10153.00
730.44	10192.00
730.89	10390.00
731.33	10624.00
731.78	10722.00
732.23	10996.00
732.68	11254.00
733.12	11332.00
733.57	11584.00
734.02	11750.00
734.46	12036.00
734.91	11968.00
735.36	11978.00
735.80	12222.00
736.25	12292.00
736.70	12310.00
737.14	12478.00
737.59	12701.00
738.04	12580.00
738.48	12451.00
738.93	12610.00
739.37	12695.00
739.82	12948.00
740.27	13060.00
740.71	13057.00
741.16	13076.00
741.61	13191.00
742.05	13200.00
742.50	13312.00
742.94	13436.00
743.39	13498.00
743.84	13618.00
744.28	13528.00
744.73	13717.00
745.18	13702.00
745.62	13942.00
746.07	13966.00
746.51	13912.00
746.96	14002.00
747.40	13849.00
747.85	13860.00
748.30	13942.00
748.74	13898.00
749.19	13820.00
749.63	14059.00
750.08	13980.00
750.52	13846.00
750.97	14034.00
751.42	13988.00
751.86	14010.00
752.31	14043.00
752.75	14028.00
753.20	13986.00
753.64	14062.00
754.09	13994.00
754.53	14088.00
754.98	13916.00
755.42	13952.00
755.87	14176.00
756.31	14073.00
756.76	13884.00
757.20	13872.00
757.65	13694.00
758.09	13598.00
758.54	13044.00
758.98	11826.00
759.43	9748.00
759.87	7730.00
760.32	6616.00
760.76	6698.00
761.21	7711.00
761.65	8645.00
762.10	8820.00
762.54	8466.00
762.99	8178.00
763.43	8418.00
763.88	8798.00
764.32	9356.00
764.77	9796.00
765.21	10482.00
765.66	10986.00
766.10	11457.00
766.54	11960.00
766.99	12286.00
767.43	12728.00
767.88	13041.00
768.32	13220.00
768.77	13374.00
769.21	13533.00
769.66	13590.00
770.10	13778.00
770.54	13908.00
770.99	13844.00
771.43	13934.00
771.88	13938.00
772.32	13922.00
772.76	13758.00
773.21	13806.00
773.65	13768.00
774.10	13633.00
774.54	13776.00
774.98	13805.00
775.43	13886.00
775.87	13920.00
776.31	13946.00
776.76	14024.00
777.20	14020.00
777.65	13898.00
778.09	13890.00
778.53	13816.00
778.98	13722.00
779.42	13946.00
779.86	13788.00
780.31	13752.00
780.75	13820.00
781.19	13831.00
781.64	13854.00
782.08	13866.00
782.52	13796.00
782.97	13678.00
783.41	13560.00
783.85	13672.00
784.30	13512.00
784.74	13378.00
785.18	13358.00
785.63	13402.00
786.07	13487.00
786.51	13582.00
786.95	13558.00
787.40	13326.00
787.84	13402.00
788.28	13348.00
788.73	13288.00
789.17	13084.00
789.61	12962.00
790.05	13008.00
790.50	12834.00
790.94	12844.00
791.38	12892.00
791.82	12900.00
792.27	12874.00
792.71	12876.00
793.15	13220.00
793.59	13118.00
794.04	12966.00
794.48	12804.00
794.92	12756.00
795.36	12680.00
795.81	12516.00
796.25	12542.00
796.69	12590.00
797.13	12614.00
797.57	12766.00
798.02	12806.00
798.46	12931.00
798.90	12830.00
799.34	12632.00
799.79	12763.00
800.23	12442.00
800.67	12471.00
801.11	12455.00
801.55	12468.00
801.99	12204.00
802.44	12392.00
802.88	12376.00
803.32	12564.00
803.76	12550.00
804.20	12648.00
804.64	12458.00
805.09	12610.00
805.53	12620.00
805.97	12474.00
806.41	12364.00
806.85	12310.00
807.29	12067.00
807.74	12172.00
808.18	12054.00
808.62	12097.00
809.06	12087.00
809.50	12012.00
809.94	12012.00
810.38	12140.00
810.82	12154.00
811.27	12238.00
811.71	11853.00
812.15	11692.00
812.59	11470.00
813.03	11245.00
813.47	10910.00
813.91	10638.00
814.35	10639.00
814.79	10514.00
815.23	10458.00
815.67	10280.00
816.12	10290.00
816.56	10296.00
817.00	10391.00
817.44	10614.00
817.88	10426.00
818.32	10368.00
818.76	10426.00
819.20	10452.00
819.64	10464.00
820.08	10498.00
820.52	10804.00
820.96	10925.00
821.40	10720.00
821.84	10516.00
822.28	9982.00
822.72	9992.00
823.16	10022.00
823.60	10450.00
824.04	11089.00
824.48	11005.00
824.92	11066.00
825.36	11118.00
825.80	10925.00
826.24	10816.00
826.68	10694.00
827.12	10684.00
827.56	10566.00
828.00	10538.00
828.44	10667.00
828.88	10708.00
829.32	10716.00
829.76	10822.00
830.20	11058.00
830.64	10804.00
831.08	11018.00
831.52	10707.00
831.96	10604.00
832.40	10420.00
832.84	10662.00
833.28	10639.00
833.72	10921.00
834.16	10886.00
834.60	11150.00
835.04	11275.00
835.48	11408.00
835.91	11400.00
836.35	11346.00
836.79	11295.00
837.23	11280.00
837.67	11126.00
838.11	11010.00
838.55	11080.00
838.99	11165.00
839.43	11256.00
839.87	11308.00
840.30	11398.00
840.74	11416.00
841.18	11494.00
841.62	11562.00
842.06	11558.00
842.50	11676.00
842.94	11486.00
843.38	11332.00
843.81	11201.00
844.25	11160.00
844.69	10980.00
845.13	11094.00
845.57	11084.00
846.01	11181.00
846.45	11181.00
846.88	11233.00
847.32	11412.00
847.76	11489.00
848.20	11513.00
848.64	11273.00
849.08	11218.00
849.51	11368.00
849.95	11050.00
850.39	11010.00
850.83	11258.00
851.27	11086.00
851.70	10977.00
852.14	10938.00
852.58	10708.00
853.02	10430.00
853.46	10190.00
853.89	10280.00
854.33	10248.00
854.77	10586.00
855.21	11056.00
855.65	11464.00
856.08	11502.00
856.52	11506.00
856.96	11452.00
857.40	11156.00
857.83	11051.00
858.27	11007.00
858.71	10678.00
859.15	10770.00
859.58	10818.00
860.02	10888.00
860.46	11064.00
860.89	11270.00
861.33	11227.00
861.77	11298.00
862.21	11356.00
862.64	11438.00
863.08	11425.00
863.52	11314.00
863.95	11140.00
864.39	10980.00
864.83	10676.00
865.27	10332.00
865.70	10264.00
866.14	10072.00
866.58	10226.00
867.01	10454.00
867.45	10714.00
867.89	10962.00
868.32	11126.00
868.76	11236.00
869.20	11284.00
869.63	11433.00
870.07	11340.00
870.51	11025.00
870.94	10758.00
871.38	10608.00
871.82	10518.00
872.25	10422.00
872.69	10433.00
873.13	10390.00
873.56	10614.00
874.00	10658.00
874.43	10742.00
874.87	10844.00
875.31	10960.00
875.74	10892.00
876.18	11050.00
876.61	11067.00
877.05	11028.00
877.49	10774.00
877.92	10810.00
878.36	10639.00
878.79	10367.00
879.23	10442.00
879.67	10180.00
880.10	10136.00
880.54	10142.00
880.97	10238.00
881.41	10534.00
881.84	10752.00
882.28	10881.00
882.72	10980.00
883.15	11018.00
883.59	11014.00
884.02	11172.00
884.46	11064.00
884.89	10872.00
885.33	10684.00
885.76	10400.00
886.20	10286.00
886.63	10232.00
887.07	10174.00
887.50	10150.00
887.94	10172.00
888.37	10186.00
888.81	10504.00
889.24	10344.00
889.68	10582.00
890.11	10560.00
890.55	10772.00
890.98	10870.00
891.42	10723.00
891.85	10646.00
892.29	10632.00
892.72	10379.00
893.16	10096.00
893.59	10004.00
894.03	9710.00
894.46	9526.00
894.90	9270.00
895.33	8954.00
895.77	8958.00
896.20	8992.00
896.63	8865.00
897.07	8895.00
897.50	8857.00
897.94	9014.00
898.37	9266.00
898.81	8688.00
899.24	8816.00
899.68	9138.00
900.11	9084.00
900.54	8894.00
900.98	8701.00
901.41	8738.00
901.85	8834.00
902.28	8770.00
902.71	8944.00
903.15	9116.00
903.58	9334.00
904.02	9248.00
904.45	9250.00
904.88	9182.00
905.32	9098.00
905.75	9198.00
906.18	8922.00
906.62	9016.00
907.05	8812.00
907.48	8790.00
907.92	8847.00
908.35	8880.00
908.79	8596.00
909.22	8625.00
909.65	8633.00
910.09	8474.00
910.52	8542.00
910.95	8566.00
911.38	8494.00
911.82	8248.00
912.25	8430.00
912.68	8524.00
913.12	8530.00
913.55	8542.00
913.98	8642.00
914.42	8938.00
914.85	8980.00
915.28	8640.00
915.72	8700.00
916.15	8504.00
916.58	8648.00
917.01	8363.00
917.45	8336.00
917.88	8382.00
918.31	8532.00
918.74	8804.00
919.18	8764.00
919.61	8886.00
920.04	8986.00
920.47	9022.00
920.91	9145.00
921.34	8998.00
921.77	9040.00
922.20	9152.00
922.64	9034.00
923.07	9132.00
923.50	8968.00
923.93	8912.00
924.37	8882.00
924.80	8688.00
925.23	8662.00
925.66	8514.00
926.09	8092.00
926.53	8085.00
926.96	7856.00
927.39	7687.00
927.82	7369.00
928.25	7098.00
928.69	7100.00
929.12	6882.00
929.55	6754.00
929.98	6668.00
930.41	6358.00
930.84	6210.00
931.28	5885.00
931.71	5758.00
932.14	5480.00
932.57	5438.00
933.00	5140.00
933.43	5182.00
933.86	4972.00
934.30	4928.00
934.73	5150.00
935.16	4996.00
935.59	4872.00
936.02	5017.00
936.45	4880.00
936.88	4976.00
937.31	5148.00
937.75	5248.00
938.18	5382.00
938.61	5552.00
939.04	5714.00
939.47	5540.00
939.90	5468.00
940.33	5406.00
940.76	5120.00
941.19	5084.00
941.62	4962.00
942.05	4972.00
942.48	4747.00
942.91	4772.00
943.35	4832.00
943.78	4756.00
944.21	4786.00
944.64	4972.00
945.07	4920.00
945.50	4916.00
945.93	4926.00
946.36	5108.00
946.79	5094.00
947.22	5198.00
947.65	5140.00
948.08	4998.00
948.51	5186.00
948.94	5302.00
949.37	5212.00
949.80	5132.00
950.23	5144.00
950.66	5168.00
951.09	5240.00
951.52	5068.00
951.95	5129.00
952.38	5186.00
952.81	5350.00
953.24	5462.00
953.67	5418.00
954.10	5424.00
954.53	5561.00
954.96	5507.00
955.39	5718.00
955.82	5782.00
956.25	5714.00
956.68	5908.00
957.11	5758.00
957.53	5779.00
957.96	5744.00
958.39	5564.00
958.82	5470.00
959.25	5583.00
959.68	5694.00
960.11	5772.00
960.54	5836.00
960.97	6046.00
961.40	6088.00
961.83	6068.00
962.26	6124.00
962.68	6325.00
963.11	6372.00
963.54	6386.00
963.97	6478.00
964.40	6430.00
964.83	6582.00
965.26	6685.00
965.69	6570.00
966.11	6549.00
966.54	6575.00
966.97	6728.00
967.40	6847.00
967.83	6866.00
968.26	6792.00
968.69	6808.00
969.11	6898.00
969.54	6762.00
969.97	6843.00
970.40	6923.00
970.83	6918.00
971.26	6884.00
971.68	6892.00
972.11	6908.00
972.54	7054.00
972.97	6982.00
973.40	6906.00
973.82	6934.00
974.25	6974.00
974.68	6970.00
975.11	6800.00
975.54	6764.00
975.96	6708.00
976.39	6662.00
976.82	6818.00
977.25	6708.00
977.67	6610.00
978.10	6672.00
978.53	6758.00
978.96	6925.00
979.38	7000.00
979.81	6932.00
980.24	7120.00
980.67	7214.00
981.09	7168.00
981.52	7282.00
981.95	7248.00
982.38	7244.00
982.80	7346.00
983.23	7426.00
983.66	7536.00
984.08	7334.00
984.51	7332.00
984.94	7325.00
985.37	7316.00
985.79	7248.00
986.22	7021.00
986.65	7022.00
987.07	6992.00
987.50	6954.00
987.93	7016.00
988.35	7000.00
988.78	7034.00
989.21	7068.00
989.63	7212.00
990.06	7246.00
990.49	7284.00
990.91	7464.00
991.34	7460.00
991.77	7386.00
992.19	7371.00
992.62	7434.00
993.05	7382.00
993.47	7358.00
993.90	7394.00
994.32	7182.00
994.75	7150.00
995.18	6980.00
995.60	6954.00
996.03	6890.00
996.45	6940.00
996.88	6925.00
997.31	6838.00
997.73	6913.00
998.16	6819.00
998.58	6996.00
999.01	6924.00
999.44	6978.00
999.86	7045.00
1000.29	7041.00
1000.71	7073.00
1001.14	7186.00
1001.56	7143.00
1001.99	7100.00
1002.41	7014.00
1002.84	6900.00
1003.27	6809.00
1003.69	6861.00
1004.12	6770.00
1004.54	6740.00
1004.97	6550.00
1005.39	6462.00
1005.82	6552.00
1006.24	6516.00
1006.67	6418.00
1007.09	6408.00
1007.52	6446.00
1007.94	6500.00
1008.37	6626.00
1008.79	6538.00
1009.22	6545.00
1009.64	6589.00
1010.07	6553.00
1010.49	6640.00
1010.92	6518.00
1011.34	6656.00
1011.77	6595.00
1012.19	6636.00
1012.62	6562.00
1013.04	6474.00
1013.46	6494.00
1013.89	6294.00
1014.31	6281.00
1014.74	6176.00
1015.16	6164.00
1015.59	6111.00
1016.01	6200.00
1016.44	6100.00
1016.86	7058.00
1017.28	6178.00
1017.71	6119.00
1018.13	6404.00
1018.56	6351.00
1018.98	6364.00
1019.40	6286.00
1019.83	6394.00
1020.25	6425.00
1020.68	6403.00
1021.10	6518.00
1021.52	6426.00
1021.95	6706.00
1022.37	6518.00
1022.79	6484.00
1023.22	6488.00
1023.64	6346.00
1024.07	6440.00
1024.49	6324.00
1024.91	6208.00
1025.34	6192.00
1025.76	6325.00
1026.18	6258.00
1026.61	6162.00
1027.03	6176.00
1027.45	6186.00
1027.88	6168.00
1028.30	6308.00
1028.72	6194.00
1029.15	6166.00
1029.57	6186.00
1029.99	6324.00
1030.41	6186.00
1030.84	6240.00
1031.26	6312.00
1031.68	6186.00
1032.11	6234.00
1032.53	6062.00
1032.95	6098.00
1033.37	6112.00
1033.80	6051.00
1034.22	5913.00
1034.64	6050.00
1035.06	5864.00
1035.49	5848.00
1035.91	5801.00
1036.33	5652.00
1036.75	5763.00
1037.18	5688.00
1037.60	5682.00
1038.02	5742.00
1038.44	5754.00
1038.87	5714.00
1039.29	5736.00
1039.71	5754.00
1040.13	5652.00
1040.55	5848.00
1040.98	5796.00
1041.40	5763.00
1041.82	5754.00
1042.24	5688.00
1042.66	5710.00
1043.09	5505.00
1043.51	5566.00
1043.93	5505.00
1044.35	5454.00
1044.77	5484.00
1045.20	5484.00
1045.62	5330.00
1046.04	5424.00
1046.46	5284.00
1046.88	5224.00
1047.30	5316.00
1047.72	5296.00
1048.15	5288.00
1048.57	5188.00
1048.99	5196.00
1049.41	5240.00
1049.83	5244.00
1050.25	5310.00
1050.67	5196.00
1051.09	5153.00
1051.52	5224.00
1051.94	5046.00
1052.36	5120.00
1052.78	5024.00
1053.20	5131.00
1053.62	5092.00
1054.04	5140.00
1054.46	5093.00
1054.88	5177.00
1055.30	5112.00
1055.72	5070.00
1056.14	5053.00
1056.57	5110.00
1056.99	4836.00
1057.41	4886.00
1057.83	4901.00
1058.25	4889.00
1058.67	4808.00
1059.09	4753.00
1059.51	4813.00
1059.93	4754.00
1060.35	4751.00
1060.77	4778.00
1061.19	4828.00
1061.61	4734.00
1062.03	4714.00
1062.45	4644.00
1062.87	4790.00
1063.29	4738.00
1063.71	4656.00
1064.13	4662.00
1064.55	4608.00
1064.97	4750.00
1065.39	4716.00
1065.81	4642.00
1066.23	4640.00
1066.65	4620.00
1067.07	4736.00
1067.49	4586.00
1067.91	4542.00
1068.33	4514.00
1068.75	4568.00
1069.17	4544.00
1069.59	4531.00
1070.00	4431.00
1070.42	4514.00
1070.84	4414.00
1071.26	4398.00
1071.68	4396.00
1072.10	4442.00
1072.52	4412.00
1072.94	4400.00
1073.36	4350.00
1073.78	4424.00
1074.20	4336.00
1074.62	4345.00
1075.03	4286.00
1075.45	4374.00
1075.87	4410.00
1076.29	4369.00
1076.71	4397.00
1077.13	4428.00
1077.55	4262.00
1077.97	4291.00
1078.38	4311.00
1078.80	4291.00
1079.22	4355.00
1079.64	4257.00
1080.06	4244.00
1080.48	4264.00
1080.89	4218.00
1081.31	4218.00
1081.73	4200.00
1082.15	4228.00
1082.57	4230.00
1082.99	4170.00
1083.40	4170.00
1083.82	4210.00
1084.24	4162.00
1084.66	4112.00
1085.08	4114.00
1085.49	4078.00
1085.91	4196.00
1086.33	5574.00
1086.75	4132.00
1087.17	4070.00
1087.58	4064.00
1088.00	4122.00
1088.42	4188.00
1088.84	4090.00
1089.25	4034.00
1089.67	4089.00
1090.09	4030.00
1090.51	3979.00
1090.92	4100.00
1091.34	4056.00
1091.76	4006.00
1092.18	3985.00
1092.59	3958.00
1093.01	3966.00
1093.43	3914.00
1093.84	3930.00
1094.26	3985.00
1094.68	3928.00
1095.10	3851.00
1095.51	3925.00
1095.93	3880.00
1096.35	3924.00
1096.76	3931.00
1097.18	3960.00
1097.60	3874.00
1098.01	3900.00
1098.43	3840.00
1098.85	3908.00
1099.26	3834.00
1099.68	3866.00
1100.10	3798.00
1100.51	3816.00
1100.93	3792.00
1101.35	3815.00
1101.76	3826.00
1102.18	4368.00
1102.60	3816.00
1103.01	3722.00
1103.43	3826.00
1103.84	3779.00
1104.26	3716.00
1104.68	3745.00
1105.09	3652.00
1105.51	3678.00
1105.92	3790.00
1106.34	3660.00
1106.76	3758.00
1107.17	3666.00
1107.59	3718.00
1108.00	3618.00
1108.42	3686.00
1108.83	3606.00
1109.25	3644.00
1109.67	3582.00
1110.08	3640.00
1110.50	3614.00
1110.91	3617.00
1111.33	3602.00
1111.74	3583.00
1112.16	3590.00
1112.57	3676.00
1112.99	3560.00
1113.41	3612.00
1113.82	3594.00
1114.24	3546.00
1114.65	3536.00
1115.07	3426.00
1115.48	3323.00
1115.90	2188.00
1116.31	2220.00
1116.73	2219.00
1117.14	2221.00
>>>>>End Processed Spectral Data<<<<<
