SpectraSuite Data File
++++++++++++++++++++++++++++++++++++
Date: Tue May 29 12:59:35 EEST 2018
User: CanSEE
Dark Spectrum Present: No
Reference Spectrum Present: No
Number of Sampled Component Spectra: 1
Spectrometers: MAYP11278
Integration Time (usec): 250000 (MAYP11278)
Spectra Averaged: 1 (MAYP11278)
Boxcar Smoothing: 0 (MAYP11278)
Correct for Electrical Dark: No (MAYP11278)
Strobe/Lamp Enabled: No (MAYP11278)
Correct for Detector Non-linearity: No (MAYP11278)
Correct for Stray Light: No (MAYP11278)
Number of Pixels in Processed Spectrum: 2068
>>>>>Begin Processed Spectral Data<<<<<
187.82	2322.00
188.30	2225.00
188.78	2194.00
189.26	2195.00
189.73	2951.00
190.21	3071.00
190.69	3156.00
191.17	3124.00
191.64	3149.00
192.12	3142.00
192.60	3146.00
193.07	3127.00
193.55	3151.00
194.03	3152.00
194.51	3153.00
194.98	3140.00
195.46	3159.00
195.94	3161.00
196.42	3145.00
196.89	3220.00
197.37	3146.00
197.85	3107.00
198.32	3125.00
198.80	3125.00
199.28	3150.00
199.76	3167.00
200.23	3131.00
200.71	3136.00
201.19	3194.00
201.66	3203.00
202.14	3200.00
202.62	3172.00
203.09	3156.00
203.57	3104.00
204.05	3199.00
204.53	3166.00
205.00	3124.00
205.48	3157.00
205.96	3212.00
206.43	3170.00
206.91	3187.00
207.39	3272.00
207.86	3156.00
208.34	3190.00
208.82	3140.00
209.29	3166.00
209.77	3191.00
210.25	3157.00
210.72	3158.00
211.20	3199.00
211.68	3172.00
212.15	3129.00
212.63	3226.00
213.11	3213.00
213.58	3124.00
214.06	3248.00
214.53	3166.00
215.01	3208.00
215.49	3182.00
215.96	3225.00
216.44	3159.00
216.92	3170.00
217.39	3156.00
217.87	3168.00
218.35	3209.00
218.82	3107.00
219.30	3161.00
219.77	3136.00
220.25	3153.00
220.73	3232.00
221.20	3174.00
221.68	3205.00
222.15	3151.00
222.63	3190.00
223.11	3204.00
223.58	3194.00
224.06	3182.00
224.53	3165.00
225.01	3125.00
225.49	3166.00
225.96	3143.00
226.44	3173.00
226.91	3179.00
227.39	3143.00
227.87	3216.00
228.34	3180.00
228.82	3188.00
229.29	3164.00
229.77	3178.00
230.24	3155.00
230.72	3189.00
231.20	3166.00
231.67	3172.00
232.15	3178.00
232.62	3120.00
233.10	3187.00
233.57	3176.00
234.05	3294.00
234.53	3193.00
235.00	3132.00
235.48	3158.00
235.95	3210.00
236.43	3201.00
236.90	3244.00
237.38	3151.00
237.85	3196.00
238.33	3164.00
238.80	3195.00
239.28	3195.00
239.75	3130.00
240.23	3187.00
240.71	3214.00
241.18	3182.00
241.66	3164.00
242.13	3184.00
242.61	3240.00
243.08	3129.00
243.56	3151.00
244.03	3194.00
244.51	3234.00
244.98	3184.00
245.46	3221.00
245.93	4658.00
246.41	3132.00
246.88	3174.00
247.36	3160.00
247.83	3179.00
248.31	3205.00
248.78	3124.00
249.26	3194.00
249.73	3210.00
250.21	3196.00
250.68	3228.00
251.16	3178.00
251.63	3255.00
252.10	3214.00
252.58	3192.00
253.05	3189.00
253.53	3179.00
254.00	3164.00
254.48	3177.00
254.95	3224.00
255.43	3196.00
255.90	3163.00
256.38	3203.00
256.85	3225.00
257.33	3250.00
257.80	3334.00
258.27	3199.00
258.75	3195.00
259.22	3202.00
259.70	3195.00
260.17	3234.00
260.65	3204.00
261.12	3163.00
261.59	3264.00
262.07	3182.00
262.54	3194.00
263.02	3205.00
263.49	3155.00
263.97	3227.00
264.44	3235.00
264.91	3157.00
265.39	3181.00
265.86	3211.00
266.34	3234.00
266.81	3201.00
267.28	3153.00
267.76	3184.00
268.23	3183.00
268.71	3104.00
269.18	3146.00
269.65	3165.00
270.13	3158.00
270.60	3252.00
271.08	3179.00
271.55	3188.00
272.02	3149.00
272.50	3140.00
272.97	3143.00
273.44	3186.00
273.92	3296.00
274.39	3228.00
274.87	3202.00
275.34	3126.00
275.81	3174.00
276.29	3168.00
276.76	3179.00
277.23	3083.00
277.71	3119.00
278.18	3071.00
278.65	3258.00
279.13	3096.00
279.60	3159.00
280.07	3376.00
280.55	3409.00
281.02	3446.00
281.50	3205.00
281.97	3316.00
282.44	3247.00
282.91	3227.00
283.39	3247.00
283.86	3160.00
284.33	3178.00
284.81	3257.00
285.28	3210.00
285.75	3225.00
286.23	3219.00
286.70	3159.00
287.17	3228.00
287.65	3254.00
288.12	3162.00
288.59	3223.00
289.07	3115.00
289.54	3250.00
290.01	3151.00
290.48	3197.00
290.96	3194.00
291.43	3209.00
291.90	3285.00
292.38	3155.00
292.85	3244.00
293.32	3157.00
293.79	3220.00
294.27	3234.00
294.74	3198.00
295.21	3215.00
295.69	3225.00
296.16	3260.00
296.63	3271.00
297.10	3246.00
297.58	3213.00
298.05	3259.00
298.52	3229.00
298.99	3242.00
299.47	3166.00
299.94	3235.00
300.41	3204.00
300.88	3237.00
301.36	3226.00
301.83	3266.00
302.30	3175.00
302.77	3232.00
303.25	3247.00
303.72	3188.00
304.19	3193.00
304.66	3197.00
305.13	3211.00
305.61	3212.00
306.08	3210.00
306.55	3207.00
307.02	3198.00
307.49	3206.00
307.97	3181.00
308.44	3216.00
308.91	3206.00
309.38	3254.00
309.86	3235.00
310.33	3225.00
310.80	3239.00
311.27	3217.00
311.74	3225.00
312.21	3210.00
312.69	3261.00
313.16	3202.00
313.63	3221.00
314.10	3234.00
314.57	3182.00
315.05	3212.00
315.52	3254.00
315.99	3266.00
316.46	3190.00
316.93	3228.00
317.40	3214.00
317.88	3368.00
318.35	3223.00
318.82	3197.00
319.29	3142.00
319.76	3269.00
320.23	3278.00
320.70	3251.00
321.18	3220.00
321.65	3172.00
322.12	3183.00
322.59	3300.00
323.06	3218.00
323.53	3366.00
324.00	3183.00
324.48	3244.00
324.95	3240.00
325.42	3212.00
325.89	3228.00
326.36	3238.00
326.83	3211.00
327.30	3245.00
327.77	3265.00
328.24	3238.00
328.72	3210.00
329.19	3202.00
329.66	3210.00
330.13	3219.00
330.60	3258.00
331.07	3235.00
331.54	3330.00
332.01	3255.00
332.48	3335.00
332.95	3264.00
333.43	3251.00
333.90	3280.00
334.37	3254.00
334.84	3274.00
335.31	3362.00
335.78	3182.00
336.25	3228.00
336.72	3234.00
337.19	3254.00
337.66	3211.00
338.13	3240.00
338.60	3299.00
339.07	3222.00
339.54	3201.00
340.01	3211.00
340.49	3211.00
340.96	3279.00
341.43	3296.00
341.90	3205.00
342.37	3233.00
342.84	3254.00
343.31	3236.00
343.78	3207.00
344.25	3229.00
344.72	3241.00
345.19	3231.00
345.66	3248.00
346.13	3209.00
346.60	3178.00
347.07	3303.00
347.54	3239.00
348.01	3262.00
348.48	3243.00
348.95	3191.00
349.42	3238.00
349.89	3251.00
350.36	3255.00
350.83	3206.00
351.30	3254.00
351.77	3318.00
352.24	3248.00
352.71	3236.00
353.18	3236.00
353.65	3250.00
354.12	3240.00
354.59	3260.00
355.06	3249.00
355.53	3285.00
356.00	3207.00
356.47	3297.00
356.94	3222.00
357.41	3334.00
357.88	3252.00
358.35	3187.00
358.82	3215.00
359.28	3247.00
359.75	3178.00
360.22	3276.00
360.69	3307.00
361.16	3234.00
361.63	3233.00
362.10	3235.00
362.57	3258.00
363.04	3240.00
363.51	3307.00
363.98	3283.00
364.45	3206.00
364.92	3258.00
365.39	3258.00
365.86	3187.00
366.32	3232.00
366.79	3241.00
367.26	3840.00
367.73	3264.00
368.20	3226.00
368.67	3249.00
369.14	3171.00
369.61	3262.00
370.08	3244.00
370.55	3213.00
371.02	3774.00
371.48	3244.00
371.95	3243.00
372.42	3182.00
372.89	3218.00
373.36	3233.00
373.83	3171.00
374.30	3197.00
374.77	3223.00
375.23	3181.00
375.70	3278.00
376.17	3220.00
376.64	3170.00
377.11	3211.00
377.58	3240.00
378.05	3218.00
378.51	3277.00
378.98	3219.00
379.45	3262.00
379.92	3243.00
380.39	3337.00
380.86	3217.00
381.33	3264.00
381.79	3303.00
382.26	3166.00
382.73	3260.00
383.20	3255.00
383.67	3282.00
384.14	3200.00
384.60	3435.00
385.07	3246.00
385.54	3233.00
386.01	3252.00
386.48	3298.00
386.94	3227.00
387.41	3206.00
387.88	3286.00
388.35	3217.00
388.82	3275.00
389.28	3215.00
389.75	3254.00
390.22	3271.00
390.69	3271.00
391.16	3258.00
391.62	3270.00
392.09	3263.00
392.56	3235.00
393.03	3238.00
393.50	3362.00
393.96	3243.00
394.43	3282.00
394.90	3214.00
395.37	3249.00
395.83	3431.00
396.30	3215.00
396.77	3277.00
397.24	3281.00
397.70	3233.00
398.17	3266.00
398.64	3217.00
399.11	3258.00
399.57	3295.00
400.04	3214.00
400.51	3251.00
400.98	3246.00
401.44	3300.00
401.91	3275.00
402.38	3277.00
402.84	3244.00
403.31	3322.00
403.78	3271.00
404.25	3359.00
404.71	3336.00
405.18	3294.00
405.65	3225.00
406.12	3327.00
406.58	3263.00
407.05	3372.00
407.52	3326.00
407.98	3935.00
408.45	3260.00
408.92	3253.00
409.38	3318.00
409.85	3243.00
410.32	3344.00
410.78	3274.00
411.25	3357.00
411.72	3291.00
412.18	3253.00
412.65	3344.00
413.12	3305.00
413.59	3280.00
414.05	3334.00
414.52	3406.00
414.98	3306.00
415.45	3351.00
415.92	3300.00
416.38	3306.00
416.85	3387.00
417.32	3298.00
417.78	3269.00
418.25	3295.00
418.72	3293.00
419.18	3337.00
419.65	3284.00
420.12	3322.00
420.58	3299.00
421.05	3306.00
421.51	3274.00
421.98	3326.00
422.45	3284.00
422.91	3310.00
423.38	3311.00
423.85	3341.00
424.31	3294.00
424.78	3309.00
425.24	3303.00
425.71	3373.00
426.18	3289.00
426.64	3335.00
427.11	3324.00
427.57	3332.00
428.04	3265.00
428.51	3280.00
428.97	3299.00
429.44	3305.00
429.90	3314.00
430.37	3418.00
430.83	3273.00
431.30	3273.00
431.77	3371.00
432.23	3320.00
432.70	3286.00
433.16	3276.00
433.63	3270.00
434.09	3292.00
434.56	3352.00
435.03	3272.00
435.49	3319.00
435.96	3283.00
436.42	3247.00
436.89	3359.00
437.35	3317.00
437.82	3283.00
438.28	3306.00
438.75	3268.00
439.21	3463.00
439.68	3336.00
440.14	3339.00
440.61	3348.00
441.07	3299.00
441.54	3301.00
442.00	3430.00
442.47	3267.00
442.94	3317.00
443.40	3342.00
443.87	3262.00
444.33	3406.00
444.80	3350.00
445.26	3307.00
445.73	3303.00
446.19	3327.00
446.65	3286.00
447.12	3327.00
447.58	3321.00
448.05	3323.00
448.51	3331.00
448.98	3359.00
449.44	3328.00
449.91	3337.00
450.37	3326.00
450.84	3321.00
451.30	3325.00
451.77	3364.00
452.23	3320.00
452.70	3368.00
453.16	3298.00
453.62	3356.00
454.09	3319.00
454.55	3356.00
455.02	3290.00
455.48	3356.00
455.95	3348.00
456.41	3304.00
456.88	3334.00
457.34	3366.00
457.80	3323.00
458.27	3286.00
458.73	3308.00
459.20	3323.00
459.66	3332.00
460.13	3299.00
460.59	3270.00
461.05	3362.00
461.52	3328.00
461.98	3248.00
462.45	3241.00
462.91	3323.00
463.37	3259.00
463.84	3303.00
464.30	3283.00
464.76	3237.00
465.23	3249.00
465.69	3275.00
466.16	3272.00
466.62	3233.00
467.08	3236.00
467.55	3248.00
468.01	3260.00
468.48	3261.00
468.94	3230.00
469.40	3184.00
469.87	3229.00
470.33	3233.00
470.79	3228.00
471.26	3189.00
471.72	3181.00
472.18	3203.00
472.65	3208.00
473.11	3265.00
473.57	3211.00
474.04	3215.00
474.50	3198.00
474.96	3191.00
475.43	3209.00
475.89	3208.00
476.35	3251.00
476.82	3192.00
477.28	3208.00
477.74	3236.00
478.21	3216.00
478.67	3228.00
479.13	3182.00
479.59	3274.00
480.06	3203.00
480.52	3209.00
480.98	3187.00
481.45	3196.00
481.91	3226.00
482.37	3147.00
482.84	3179.00
483.30	3135.00
483.76	3191.00
484.22	3215.00
484.69	3233.00
485.15	3194.00
485.61	3114.00
486.07	3129.00
486.54	3119.00
487.00	3159.00
487.46	3131.00
487.92	3163.00
488.39	3174.00
488.85	3187.00
489.31	3177.00
489.77	3243.00
490.24	3162.00
490.70	3204.00
491.16	3180.00
491.62	3159.00
492.09	3137.00
492.55	3236.00
493.01	3222.00
493.47	3222.00
493.94	3177.00
494.40	3193.00
494.86	3190.00
495.32	3181.00
495.78	3240.00
496.25	3191.00
496.71	3237.00
497.17	3331.00
497.63	3252.00
498.09	3214.00
498.56	3268.00
499.02	3245.00
499.48	3360.00
499.94	3257.00
500.40	3233.00
500.87	3253.00
501.33	3258.00
501.79	3278.00
502.25	3292.00
502.71	3578.00
503.17	3296.00
503.64	3347.00
504.10	3327.00
504.56	3383.00
505.02	3394.00
505.48	3372.00
505.94	3429.00
506.40	3449.00
506.87	3432.00
507.33	3473.00
507.79	3467.00
508.25	3470.00
508.71	3486.00
509.17	3486.00
509.63	3556.00
510.10	3594.00
510.56	3563.00
511.02	3651.00
511.48	3719.00
511.94	3682.00
512.40	3597.00
512.86	3668.00
513.32	3755.00
513.78	3695.00
514.25	3793.00
514.71	4335.00
515.17	3778.00
515.63	3863.00
516.09	3896.00
516.55	3832.00
517.01	3926.00
517.47	3938.00
517.93	3953.00
518.39	4145.00
518.85	4026.00
519.32	4122.00
519.78	4156.00
520.24	4142.00
520.70	4243.00
521.16	4268.00
521.62	4392.00
522.08	4351.00
522.54	4381.00
523.00	4528.00
523.46	4457.00
523.92	4535.00
524.38	4679.00
524.84	4572.00
525.30	4665.00
525.76	4647.00
526.22	4591.00
526.68	4555.00
527.14	4660.00
527.60	4727.00
528.06	4861.00
528.52	4949.00
528.98	4906.00
529.44	4904.00
529.90	4982.00
530.36	5026.00
530.82	5056.00
531.28	5081.00
531.74	5087.00
532.20	5032.00
532.66	5013.00
533.12	5078.00
533.58	5075.00
534.04	5110.00
534.50	5165.00
534.96	5142.00
535.42	5217.00
535.88	5142.00
536.34	5138.00
536.80	5039.00
537.26	5195.00
537.72	5273.00
538.18	5185.00
538.64	5244.00
539.10	5254.00
539.56	5389.00
540.02	5098.00
540.48	5224.00
540.94	5221.00
541.40	5157.00
541.86	5264.00
542.32	5222.00
542.78	5202.00
543.24	5364.00
543.69	5221.00
544.15	5383.00
544.61	5263.00
545.07	5306.00
545.53	5263.00
545.99	5320.00
546.45	5254.00
546.91	5363.00
547.37	5280.00
547.83	5276.00
548.29	5295.00
548.74	5338.00
549.20	5361.00
549.66	5446.00
550.12	5278.00
550.58	5309.00
551.04	5302.00
551.50	5377.00
551.96	5472.00
552.42	5353.00
552.87	5275.00
553.33	5348.00
553.79	5368.00
554.25	5354.00
554.71	5349.00
555.17	5373.00
555.63	5385.00
556.08	5280.00
556.54	5277.00
557.00	5223.00
557.46	5239.00
557.92	5310.00
558.38	5166.00
558.83	5186.00
559.29	5138.00
559.75	5146.00
560.21	5132.00
560.67	5157.00
561.13	5145.00
561.58	5096.00
562.04	5056.00
562.50	5067.00
562.96	5123.00
563.42	5174.00
563.87	5028.00
564.33	5026.00
564.79	5047.00
565.25	4990.00
565.71	4879.00
566.16	4959.00
566.62	4891.00
567.08	4899.00
567.54	4861.00
568.00	4883.00
568.45	4792.00
568.91	4777.00
569.37	4786.00
569.83	4731.00
570.28	4682.00
570.74	4714.00
571.20	4651.00
571.66	4653.00
572.11	4649.00
572.57	4605.00
573.03	4617.00
573.49	4507.00
573.94	4557.00
574.40	4545.00
574.86	4523.00
575.32	4398.00
575.77	4441.00
576.23	4342.00
576.69	4437.00
577.15	4411.00
577.60	4348.00
578.06	4320.00
578.52	4374.00
578.97	4344.00
579.43	4274.00
579.89	4359.00
580.34	4323.00
580.80	4386.00
581.26	4258.00
581.72	4294.00
582.17	4266.00
582.63	4260.00
583.09	4250.00
583.54	4252.00
584.00	4265.00
584.46	4289.00
584.91	4204.00
585.37	4277.00
585.83	4182.00
586.28	4123.00
586.74	4163.00
587.20	4166.00
587.65	4232.00
588.11	4075.00
588.57	4025.00
589.02	3985.00
589.48	3922.00
589.94	4013.00
590.39	4078.00
590.85	4012.00
591.30	4047.00
591.76	4065.00
592.22	4025.00
592.67	4058.00
593.13	4031.00
593.59	4086.00
594.04	3998.00
594.50	3985.00
594.95	4035.00
595.41	3990.00
595.87	4037.00
596.32	4077.00
596.78	4059.00
597.23	4063.00
597.69	3976.00
598.15	3949.00
598.60	3992.00
599.06	4060.00
599.51	3962.00
599.97	3971.00
600.43	4035.00
600.88	3968.00
601.34	3970.00
601.79	3889.00
602.25	4076.00
602.70	3968.00
603.16	3999.00
603.61	3973.00
604.07	3898.00
604.53	3990.00
604.98	3965.00
605.44	3950.00
605.89	3946.00
606.35	3851.00
606.80	3943.00
607.26	3930.00
607.71	3869.00
608.17	3908.00
608.62	3901.00
609.08	3920.00
609.53	3893.00
609.99	3839.00
610.44	3818.00
610.90	3881.00
611.35	3785.00
611.81	3907.00
612.26	3842.00
612.72	3783.00
613.17	3894.00
613.63	3714.00
614.08	3708.00
614.54	3758.00
614.99	3740.00
615.45	3706.00
615.90	3712.00
616.36	3655.00
616.81	3680.00
617.27	3706.00
617.72	3741.00
618.18	3711.00
618.63	3695.00
619.09	3735.00
619.54	3704.00
619.99	3698.00
620.45	3714.00
620.90	3675.00
621.36	3648.00
621.81	3691.00
622.27	3674.00
622.72	3670.00
623.18	3617.00
623.63	3597.00
624.08	3678.00
624.54	3599.00
624.99	3592.00
625.45	3615.00
625.90	3611.00
626.35	3652.00
626.81	3635.00
627.26	3599.00
627.72	3604.00
628.17	3647.00
628.62	3562.00
629.08	3634.00
629.53	3628.00
629.99	3550.00
630.44	3589.00
630.89	3562.00
631.35	3648.00
631.80	3590.00
632.26	3647.00
632.71	3605.00
633.16	3569.00
633.62	3552.00
634.07	3556.00
634.52	3566.00
634.98	3571.00
635.43	3546.00
635.88	3503.00
636.34	3558.00
636.79	3553.00
637.24	3552.00
637.70	3583.00
638.15	3591.00
638.60	3541.00
639.06	3529.00
639.51	3507.00
639.96	3482.00
640.42	3481.00
640.87	3502.00
641.32	3414.00
641.78	3437.00
642.23	3475.00
642.68	3394.00
643.14	3427.00
643.59	3438.00
644.04	3387.00
644.49	3361.00
644.95	3369.00
645.40	3357.00
645.85	3355.00
646.31	3363.00
646.76	3387.00
647.21	3381.00
647.66	3338.00
648.12	3342.00
648.57	3295.00
649.02	3331.00
649.47	3329.00
649.93	3456.00
650.38	3282.00
650.83	3286.00
651.28	3308.00
651.74	3295.00
652.19	3243.00
652.64	3276.00
653.09	3276.00
653.55	3249.00
654.00	3276.00
654.45	3249.00
654.90	3232.00
655.35	3218.00
655.81	3266.00
656.26	3158.00
656.71	3222.00
657.16	3251.00
657.62	3224.00
658.07	3218.00
658.52	3227.00
658.97	3175.00
659.42	3345.00
659.88	3153.00
660.33	3238.00
660.78	3213.00
661.23	3201.00
661.68	3195.00
662.13	3155.00
662.59	3146.00
663.04	3175.00
663.49	3192.00
663.94	3155.00
664.39	3188.00
664.84	3157.00
665.30	3158.00
665.75	3090.00
666.20	3146.00
666.65	3110.00
667.10	3239.00
667.55	3166.00
668.00	3083.00
668.46	3180.00
668.91	3119.00
669.36	3196.00
669.81	3087.00
670.26	3079.00
670.71	3172.00
671.16	3108.00
671.61	3163.00
672.06	3199.00
672.52	3094.00
672.97	3140.00
673.42	3182.00
673.87	3236.00
674.32	3107.00
674.77	3168.00
675.22	3072.00
675.67	3097.00
676.12	3091.00
676.57	3118.00
677.02	3106.00
677.47	3073.00
677.93	3212.00
678.38	3064.00
678.83	3108.00
679.28	3126.00
679.73	3094.00
680.18	3124.00
680.63	3136.00
681.08	3044.00
681.53	3046.00
681.98	3111.00
682.43	3119.00
682.88	3128.00
683.33	3151.00
683.78	3113.00
684.23	3182.00
684.68	3170.00
685.13	3217.00
685.58	3210.00
686.03	3172.00
686.48	3127.00
686.93	3129.00
687.38	3161.00
687.83	3198.00
688.28	3206.00
688.73	3338.00
689.18	3274.00
689.63	3223.00
690.08	3313.00
690.53	3347.00
690.98	3325.00
691.43	3410.00
691.88	3405.00
692.33	3508.00
692.78	3528.00
693.23	3591.00
693.68	3640.00
694.13	3649.00
694.58	3745.00
695.03	3962.00
695.48	3838.00
695.93	3943.00
696.38	4043.00
696.83	4078.00
697.28	4163.00
697.72	4191.00
698.17	4209.00
698.62	4347.00
699.07	4480.00
699.52	4467.00
699.97	4554.00
700.42	4704.00
700.87	4732.00
701.32	4921.00
701.77	4799.00
702.22	5001.00
702.67	4997.00
703.11	5150.00
703.56	5264.00
704.01	5293.00
704.46	5438.00
704.91	5584.00
705.36	5630.00
705.81	5667.00
706.26	5692.00
706.70	5897.00
707.15	5944.00
707.60	6046.00
708.05	6144.00
708.50	6218.00
708.95	6277.00
709.40	6339.00
709.84	6503.00
710.29	6569.00
710.74	6609.00
711.19	6717.00
711.64	6812.00
712.09	6925.00
712.53	6958.00
712.98	7130.00
713.43	7149.00
713.88	7259.00
714.33	7278.00
714.78	7252.00
715.22	7299.00
715.67	7376.00
716.12	7313.00
716.57	7252.00
717.02	7039.00
717.46	6954.00
717.91	6916.00
718.36	6990.00
718.81	6881.00
719.26	6841.00
719.70	7049.00
720.15	7054.00
720.60	7347.00
721.05	7763.00
721.49	8080.00
721.94	8224.00
722.39	8322.00
722.84	8178.00
723.28	7912.00
723.73	7958.00
724.18	7926.00
724.63	8127.00
725.07	8062.00
725.52	8282.00
725.97	8316.00
726.42	8474.00
726.86	8628.00
727.31	8535.00
727.76	8663.00
728.21	8755.00
728.65	8907.00
729.10	8795.00
729.55	8996.00
729.99	9139.00
730.44	9252.00
730.89	9309.00
731.33	9554.00
731.78	9721.00
732.23	9965.00
732.68	10094.00
733.12	10222.00
733.57	10474.00
734.02	10614.00
734.46	10690.00
734.91	10725.00
735.36	10722.00
735.80	10886.00
736.25	10911.00
736.70	10954.00
737.14	11149.00
737.59	11285.00
738.04	11116.00
738.48	11243.00
738.93	11290.00
739.37	11241.00
739.82	11660.00
740.27	11591.00
740.71	11572.00
741.16	11721.00
741.61	11715.00
742.05	11749.00
742.50	11905.00
742.94	11899.00
743.39	12031.00
743.84	12007.00
744.28	12099.00
744.73	12108.00
745.18	12192.00
745.62	12234.00
746.07	12366.00
746.51	12239.00
746.96	12333.00
747.40	12259.00
747.85	12238.00
748.30	12305.00
748.74	12303.00
749.19	12214.00
749.63	12501.00
750.08	12353.00
750.52	12310.00
750.97	12382.00
751.42	12258.00
751.86	12383.00
752.31	12261.00
752.75	12443.00
753.20	12152.00
753.64	12274.00
754.09	12318.00
754.53	12418.00
754.98	12331.00
755.42	12292.00
755.87	12409.00
756.31	12348.00
756.76	12227.00
757.20	12175.00
757.65	12061.00
758.09	11900.00
758.54	11602.00
758.98	10706.00
759.43	8928.00
759.87	6966.00
760.32	5693.00
760.76	5556.00
761.21	6250.00
761.65	7351.00
762.10	7631.00
762.54	7369.00
762.99	7106.00
763.43	7141.00
763.88	7481.00
764.32	7960.00
764.77	8507.00
765.21	8982.00
765.66	9368.00
766.10	9824.00
766.54	10175.00
766.99	10692.00
767.43	11027.00
767.88	11318.00
768.32	11490.00
768.77	11618.00
769.21	11858.00
769.66	11912.00
770.10	12112.00
770.54	12177.00
770.99	12055.00
771.43	12052.00
771.88	12125.00
772.32	12093.00
772.76	12062.00
773.21	12017.00
773.65	12007.00
774.10	11928.00
774.54	11980.00
774.98	12031.00
775.43	12097.00
775.87	12263.00
776.31	12235.00
776.76	12256.00
777.20	12211.00
777.65	12115.00
778.09	12045.00
778.53	11946.00
778.98	11961.00
779.42	12094.00
779.86	11946.00
780.31	11902.00
780.75	12024.00
781.19	12139.00
781.64	12002.00
782.08	12065.00
782.52	12035.00
782.97	11866.00
783.41	11869.00
783.85	11799.00
784.30	11751.00
784.74	11711.00
785.18	11644.00
785.63	11700.00
786.07	11692.00
786.51	11743.00
786.95	11780.00
787.40	11558.00
787.84	11608.00
788.28	11599.00
788.73	11590.00
789.17	11297.00
789.61	11218.00
790.05	11157.00
790.50	11213.00
790.94	11125.00
791.38	11190.00
791.82	11083.00
792.27	11252.00
792.71	11288.00
793.15	11422.00
793.59	11147.00
794.04	11203.00
794.48	11112.00
794.92	11032.00
795.36	10898.00
795.81	10810.00
796.25	10807.00
796.69	10934.00
797.13	10942.00
797.57	10968.00
798.02	11072.00
798.46	11118.00
798.90	11146.00
799.34	10951.00
799.79	10980.00
800.23	10668.00
800.67	10614.00
801.11	10623.00
801.55	10575.00
801.99	10651.00
802.44	10744.00
802.88	10792.00
803.32	10783.00
803.76	10783.00
804.20	10823.00
804.64	10699.00
805.09	10771.00
805.53	10862.00
805.97	10692.00
806.41	10632.00
806.85	10649.00
807.29	10515.00
807.74	10372.00
808.18	10464.00
808.62	10439.00
809.06	10436.00
809.50	10444.00
809.94	10497.00
810.38	10424.00
810.82	10481.00
811.27	10420.00
811.71	10054.00
812.15	10087.00
812.59	9831.00
813.03	9651.00
813.47	9476.00
813.91	9203.00
814.35	9117.00
814.79	9082.00
815.23	8960.00
815.67	8772.00
816.12	8883.00
816.56	8847.00
817.00	8940.00
817.44	8988.00
817.88	8926.00
818.32	8771.00
818.76	8886.00
819.20	8822.00
819.64	8877.00
820.08	9034.00
820.52	9215.00
820.96	9404.00
821.40	9329.00
821.84	9090.00
822.28	8526.00
822.72	8491.00
823.16	8532.00
823.60	8834.00
824.04	9357.00
824.48	9461.00
824.92	9482.00
825.36	9428.00
825.80	9317.00
826.24	9237.00
826.68	9167.00
827.12	9166.00
827.56	9086.00
828.00	9104.00
828.44	9162.00
828.88	9294.00
829.32	9295.00
829.76	9244.00
830.20	9440.00
830.64	9157.00
831.08	9378.00
831.52	9098.00
831.96	9068.00
832.40	9001.00
832.84	9005.00
833.28	9239.00
833.72	9298.00
834.16	9429.00
834.60	9588.00
835.04	9653.00
835.48	9790.00
835.91	9673.00
836.35	9609.00
836.79	9491.00
837.23	9576.00
837.67	9493.00
838.11	9434.00
838.55	9421.00
838.99	9537.00
839.43	9642.00
839.87	9742.00
840.30	9736.00
840.74	9776.00
841.18	9889.00
841.62	9890.00
842.06	9862.00
842.50	9858.00
842.94	9790.00
843.38	9651.00
843.81	9472.00
844.25	9460.00
844.69	9408.00
845.13	9365.00
845.57	9417.00
846.01	9594.00
846.45	9491.00
846.88	9714.00
847.32	9852.00
847.76	9825.00
848.20	9856.00
848.64	9643.00
849.08	9743.00
849.51	9540.00
849.95	9445.00
850.39	9490.00
850.83	9390.00
851.27	9436.00
851.70	9338.00
852.14	9248.00
852.58	9175.00
853.02	8910.00
853.46	8848.00
853.89	8797.00
854.33	8813.00
854.77	8966.00
855.21	9364.00
855.65	9596.00
856.08	9693.00
856.52	9771.00
856.96	9744.00
857.40	9533.00
857.83	9364.00
858.27	9348.00
858.71	9142.00
859.15	9216.00
859.58	9204.00
860.02	9275.00
860.46	9395.00
860.89	9456.00
861.33	9581.00
861.77	9666.00
862.21	9746.00
862.64	9749.00
863.08	9705.00
863.52	9727.00
863.95	9461.00
864.39	9434.00
864.83	9218.00
865.27	8808.00
865.70	8663.00
866.14	8538.00
866.58	8584.00
867.01	8904.00
867.45	9216.00
867.89	9390.00
868.32	9572.00
868.76	9557.00
869.20	9591.00
869.63	9677.00
870.07	9486.00
870.51	9295.00
870.94	9132.00
871.38	8938.00
871.82	8910.00
872.25	8912.00
872.69	8948.00
873.13	8902.00
873.56	8982.00
874.00	9157.00
874.43	9163.00
874.87	9280.00
875.31	9367.00
875.74	9332.00
876.18	9411.00
876.61	9375.00
877.05	9348.00
877.49	9227.00
877.92	9174.00
878.36	9045.00
878.79	8833.00
879.23	8813.00
879.67	8591.00
880.10	8615.00
880.54	8685.00
880.97	8770.00
881.41	9049.00
881.84	9156.00
882.28	9189.00
882.72	9327.00
883.15	9480.00
883.59	9490.00
884.02	9404.00
884.46	9320.00
884.89	9212.00
885.33	9069.00
885.76	8798.00
886.20	8749.00
886.63	8653.00
887.07	8470.00
887.50	8540.00
887.94	8687.00
888.37	8654.00
888.81	8889.00
889.24	8862.00
889.68	8909.00
890.11	8981.00
890.55	9115.00
890.98	9169.00
891.42	9109.00
891.85	9017.00
892.29	8941.00
892.72	8853.00
893.16	8623.00
893.59	8477.00
894.03	8160.00
894.46	8082.00
894.90	7853.00
895.33	7507.00
895.77	7674.00
896.20	7552.00
896.63	7546.00
897.07	7611.00
897.50	7628.00
897.94	7633.00
898.37	7805.00
898.81	7521.00
899.24	7313.00
899.68	7623.00
900.11	7514.00
900.54	7373.00
900.98	7302.00
901.41	7292.00
901.85	7401.00
902.28	7351.00
902.71	7396.00
903.15	7686.00
903.58	7762.00
904.02	7876.00
904.45	7861.00
904.88	7791.00
905.32	7801.00
905.75	7729.00
906.18	7592.00
906.62	7595.00
907.05	7410.00
907.48	7394.00
907.92	7361.00
908.35	7464.00
908.79	7227.00
909.22	7180.00
909.65	7175.00
910.09	7134.00
910.52	7192.00
910.95	7076.00
911.38	7229.00
911.82	6946.00
912.25	7086.00
912.68	7083.00
913.12	7234.00
913.55	7215.00
913.98	7315.00
914.42	7596.00
914.85	7624.00
915.28	7328.00
915.72	7257.00
916.15	7151.00
916.58	7256.00
917.01	7055.00
917.45	6895.00
917.88	7021.00
918.31	7153.00
918.74	7279.00
919.18	7460.00
919.61	7451.00
920.04	7535.00
920.47	7652.00
920.91	7660.00
921.34	7607.00
921.77	7549.00
922.20	7739.00
922.64	7685.00
923.07	7733.00
923.50	7576.00
923.93	7424.00
924.37	7435.00
924.80	7269.00
925.23	7274.00
925.66	7123.00
926.09	6825.00
926.53	6787.00
926.96	6548.00
927.39	6526.00
927.82	6163.00
928.25	6052.00
928.69	5989.00
929.12	5970.00
929.55	5728.00
929.98	5710.00
930.41	5392.00
930.84	5259.00
931.28	5054.00
931.71	4855.00
932.14	4634.00
932.57	4573.00
933.00	4416.00
933.43	4337.00
933.86	4236.00
934.30	4095.00
934.73	4257.00
935.16	4194.00
935.59	4070.00
936.02	4150.00
936.45	4177.00
936.88	4115.00
937.31	4331.00
937.75	4425.00
938.18	4514.00
938.61	4658.00
939.04	4746.00
939.47	4726.00
939.90	4540.00
940.33	4558.00
940.76	4288.00
941.19	4271.00
941.62	4132.00
942.05	4187.00
942.48	3997.00
942.91	3981.00
943.35	4083.00
943.78	4059.00
944.21	3969.00
944.64	4142.00
945.07	4144.00
945.50	4096.00
945.93	4138.00
946.36	4273.00
946.79	4248.00
947.22	4358.00
947.65	4406.00
948.08	4226.00
948.51	4346.00
948.94	4380.00
949.37	4389.00
949.80	4282.00
950.23	4241.00
950.66	4325.00
951.09	4417.00
951.52	4229.00
951.95	4285.00
952.38	4328.00
952.81	4504.00
953.24	4520.00
953.67	4634.00
954.10	4541.00
954.53	4665.00
954.96	4649.00
955.39	4746.00
955.82	4759.00
956.25	4811.00
956.68	4928.00
957.11	4835.00
957.53	4805.00
957.96	4726.00
958.39	4663.00
958.82	4571.00
959.25	4622.00
959.68	4740.00
960.11	4861.00
960.54	4908.00
960.97	5071.00
961.40	5122.00
961.83	5165.00
962.26	5058.00
962.68	5393.00
963.11	5477.00
963.54	5394.00
963.97	5425.00
964.40	5365.00
964.83	5564.00
965.26	5503.00
965.69	5454.00
966.11	5446.00
966.54	5475.00
966.97	5584.00
967.40	5696.00
967.83	5798.00
968.26	5693.00
968.69	5699.00
969.11	5727.00
969.54	5683.00
969.97	5677.00
970.40	5840.00
970.83	5770.00
971.26	5820.00
971.68	5825.00
972.11	5786.00
972.54	5931.00
972.97	5827.00
973.40	5826.00
973.82	5824.00
974.25	5754.00
974.68	5783.00
975.11	5635.00
975.54	5689.00
975.96	5536.00
976.39	5502.00
976.82	5638.00
977.25	5615.00
977.67	5532.00
978.10	5626.00
978.53	5595.00
978.96	5823.00
979.38	5830.00
979.81	5855.00
980.24	5972.00
980.67	6126.00
981.09	6118.00
981.52	6106.00
981.95	6097.00
982.38	6108.00
982.80	6163.00
983.23	6229.00
983.66	6275.00
984.08	6170.00
984.51	6064.00
984.94	6068.00
985.37	6073.00
985.79	5985.00
986.22	5853.00
986.65	5856.00
987.07	5835.00
987.50	5892.00
987.93	5852.00
988.35	5868.00
988.78	5976.00
989.21	5903.00
989.63	6090.00
990.06	6036.00
990.49	6124.00
990.91	6257.00
991.34	6195.00
991.77	6206.00
992.19	6143.00
992.62	6187.00
993.05	6179.00
993.47	6114.00
993.90	6155.00
994.32	5977.00
994.75	5951.00
995.18	5854.00
995.60	5819.00
996.03	5750.00
996.45	5813.00
996.88	5740.00
997.31	5715.00
997.73	5787.00
998.16	5760.00
998.58	5876.00
999.01	5845.00
999.44	5811.00
999.86	5953.00
1000.29	5852.00
1000.71	5958.00
1001.14	5963.00
1001.56	5935.00
1001.99	5860.00
1002.41	5870.00
1002.84	5795.00
1003.27	5688.00
1003.69	5618.00
1004.12	5547.00
1004.54	5554.00
1004.97	5462.00
1005.39	5322.00
1005.82	5445.00
1006.24	5349.00
1006.67	5362.00
1007.09	5368.00
1007.52	5379.00
1007.94	5452.00
1008.37	5536.00
1008.79	5474.00
1009.22	5429.00
1009.64	5496.00
1010.07	5495.00
1010.49	5501.00
1010.92	5477.00
1011.34	5478.00
1011.77	5435.00
1012.19	5432.00
1012.62	5434.00
1013.04	5437.00
1013.46	5375.00
1013.89	5176.00
1014.31	5266.00
1014.74	5139.00
1015.16	5131.00
1015.59	5144.00
1016.01	5148.00
1016.44	5102.00
1016.86	6070.00
1017.28	5142.00
1017.71	5145.00
1018.13	5297.00
1018.56	5254.00
1018.98	5295.00
1019.40	5311.00
1019.83	5299.00
1020.25	5300.00
1020.68	5336.00
1021.10	5394.00
1021.52	5319.00
1021.95	5568.00
1022.37	5355.00
1022.79	5406.00
1023.22	5394.00
1023.64	5345.00
1024.07	5251.00
1024.49	5267.00
1024.91	5171.00
1025.34	5157.00
1025.76	5234.00
1026.18	5200.00
1026.61	5120.00
1027.03	5118.00
1027.45	5111.00
1027.88	5079.00
1028.30	5240.00
1028.72	5188.00
1029.15	5154.00
1029.57	5199.00
1029.99	5231.00
1030.41	5099.00
1030.84	5219.00
1031.26	5201.00
1031.68	5144.00
1032.11	5159.00
1032.53	5029.00
1032.95	5077.00
1033.37	5016.00
1033.80	5035.00
1034.22	4855.00
1034.64	5000.00
1035.06	4828.00
1035.49	4797.00
1035.91	4768.00
1036.33	4748.00
1036.75	4800.00
1037.18	4706.00
1037.60	4752.00
1038.02	4767.00
1038.44	4781.00
1038.87	4711.00
1039.29	4775.00
1039.71	4798.00
1040.13	4774.00
1040.55	4813.00
1040.98	4821.00
1041.40	4780.00
1041.82	4723.00
1042.24	4716.00
1042.66	4722.00
1043.09	4587.00
1043.51	4605.00
1043.93	4574.00
1044.35	4566.00
1044.77	4495.00
1045.20	4525.00
1045.62	4409.00
1046.04	4401.00
1046.46	4426.00
1046.88	4340.00
1047.30	4394.00
1047.72	4335.00
1048.15	4356.00
1048.57	4308.00
1048.99	4347.00
1049.41	4340.00
1049.83	4344.00
1050.25	4391.00
1050.67	4372.00
1051.09	4267.00
1051.52	4380.00
1051.94	4278.00
1052.36	4263.00
1052.78	4242.00
1053.20	4293.00
1053.62	4213.00
1054.04	4306.00
1054.46	4203.00
1054.88	4293.00
1055.30	4232.00
1055.72	4134.00
1056.14	4163.00
1056.57	4217.00
1056.99	4024.00
1057.41	4073.00
1057.83	4046.00
1058.25	3960.00
1058.67	4017.00
1059.09	3954.00
1059.51	4005.00
1059.93	3987.00
1060.35	3899.00
1060.77	3918.00
1061.19	3967.00
1061.61	3916.00
1062.03	3904.00
1062.45	3863.00
1062.87	3961.00
1063.29	3926.00
1063.71	3921.00
1064.13	3879.00
1064.55	3823.00
1064.97	3890.00
1065.39	3878.00
1065.81	3850.00
1066.23	3863.00
1066.65	3804.00
1067.07	3909.00
1067.49	3809.00
1067.91	3760.00
1068.33	3741.00
1068.75	3788.00
1069.17	3778.00
1069.59	3739.00
1070.00	3704.00
1070.42	3738.00
1070.84	3664.00
1071.26	3647.00
1071.68	3590.00
1072.10	3687.00
1072.52	3671.00
1072.94	3608.00
1073.36	3691.00
1073.78	3627.00
1074.20	3639.00
1074.62	3611.00
1075.03	3647.00
1075.45	3636.00
1075.87	3654.00
1076.29	3627.00
1076.71	3671.00
1077.13	3660.00
1077.55	3530.00
1077.97	3584.00
1078.38	3563.00
1078.80	3571.00
1079.22	3551.00
1079.64	3526.00
1080.06	3535.00
1080.48	3561.00
1080.89	3498.00
1081.31	3497.00
1081.73	3484.00
1082.15	3507.00
1082.57	3547.00
1082.99	3468.00
1083.40	3452.00
1083.82	3510.00
1084.24	3425.00
1084.66	3424.00
1085.08	3496.00
1085.49	3419.00
1085.91	3507.00
1086.33	4442.00
1086.75	3447.00
1087.17	3418.00
1087.58	3424.00
1088.00	3436.00
1088.42	3468.00
1088.84	3396.00
1089.25	3346.00
1089.67	3403.00
1090.09	3385.00
1090.51	3350.00
1090.92	3403.00
1091.34	3322.00
1091.76	3352.00
1092.18	3303.00
1092.59	3295.00
1093.01	3301.00
1093.43	3306.00
1093.84	3295.00
1094.26	3294.00
1094.68	3299.00
1095.10	3274.00
1095.51	3289.00
1095.93	3276.00
1096.35	3295.00
1096.76	3281.00
1097.18	3289.00
1097.60	3269.00
1098.01	3226.00
1098.43	3247.00
1098.85	3226.00
1099.26	3217.00
1099.68	3233.00
1100.10	3167.00
1100.51	3165.00
1100.93	3162.00
1101.35	3186.00
1101.76	3175.00
1102.18	3635.00
1102.60	3178.00
1103.01	3073.00
1103.43	3139.00
1103.84	3132.00
1104.26	3115.00
1104.68	3145.00
1105.09	3099.00
1105.51	3110.00
1105.92	3167.00
1106.34	3104.00
1106.76	3137.00
1107.17	3102.00
1107.59	3123.00
1108.00	3056.00
1108.42	3094.00
1108.83	3047.00
1109.25	3065.00
1109.67	3048.00
1110.08	3037.00
1110.50	2983.00
1110.91	3027.00
1111.33	3017.00
1111.74	3000.00
1112.16	3025.00
1112.57	3045.00
1112.99	2979.00
1113.41	3009.00
1113.82	2953.00
1114.24	2997.00
1114.65	2990.00
1115.07	2949.00
1115.48	2898.00
1115.90	2184.00
1116.31	2202.00
1116.73	2198.00
1117.14	2202.00
>>>>>End Processed Spectral Data<<<<<
