SpectraSuite Data File
++++++++++++++++++++++++++++++++++++
Date: Tue May 29 12:59:28 EEST 2018
User: CanSEE
Dark Spectrum Present: No
Reference Spectrum Present: No
Number of Sampled Component Spectra: 1
Spectrometers: MAYP11278
Integration Time (usec): 250000 (MAYP11278)
Spectra Averaged: 1 (MAYP11278)
Boxcar Smoothing: 0 (MAYP11278)
Correct for Electrical Dark: No (MAYP11278)
Strobe/Lamp Enabled: No (MAYP11278)
Correct for Detector Non-linearity: No (MAYP11278)
Correct for Stray Light: No (MAYP11278)
Number of Pixels in Processed Spectrum: 2068
>>>>>Begin Processed Spectral Data<<<<<
187.82	2322.00
188.30	2227.00
188.78	2200.00
189.26	2199.00
189.73	2989.00
190.21	3091.00
190.69	3192.00
191.17	3210.00
191.64	3248.00
192.12	3214.00
192.60	3212.00
193.07	3199.00
193.55	3228.00
194.03	3220.00
194.51	3262.00
194.98	3203.00
195.46	3261.00
195.94	3209.00
196.42	3221.00
196.89	3326.00
197.37	3227.00
197.85	3191.00
198.32	3219.00
198.80	3208.00
199.28	3250.00
199.76	3267.00
200.23	3240.00
200.71	3248.00
201.19	3261.00
201.66	3241.00
202.14	3248.00
202.62	3164.00
203.09	3255.00
203.57	3201.00
204.05	3284.00
204.53	3272.00
205.00	3213.00
205.48	3186.00
205.96	3249.00
206.43	3263.00
206.91	3237.00
207.39	3363.00
207.86	3212.00
208.34	3261.00
208.82	3214.00
209.29	3274.00
209.77	3250.00
210.25	3249.00
210.72	3218.00
211.20	3263.00
211.68	3237.00
212.15	3239.00
212.63	3306.00
213.11	3249.00
213.58	3198.00
214.06	3330.00
214.53	3224.00
215.01	3269.00
215.49	3261.00
215.96	3290.00
216.44	3265.00
216.92	3258.00
217.39	3227.00
217.87	3231.00
218.35	3280.00
218.82	3199.00
219.30	3162.00
219.77	3211.00
220.25	3227.00
220.73	3303.00
221.20	3224.00
221.68	3293.00
222.15	3241.00
222.63	3283.00
223.11	3250.00
223.58	3260.00
224.06	3260.00
224.53	3233.00
225.01	3143.00
225.49	3220.00
225.96	3197.00
226.44	3259.00
226.91	3241.00
227.39	3228.00
227.87	3221.00
228.34	3224.00
228.82	3229.00
229.29	3245.00
229.77	3232.00
230.24	3210.00
230.72	3225.00
231.20	3229.00
231.67	3251.00
232.15	3213.00
232.62	3193.00
233.10	3218.00
233.57	3249.00
234.05	3337.00
234.53	3241.00
235.00	3228.00
235.48	3234.00
235.95	3267.00
236.43	3317.00
236.90	3299.00
237.38	3230.00
237.85	3241.00
238.33	3212.00
238.80	3217.00
239.28	3226.00
239.75	3230.00
240.23	3263.00
240.71	3264.00
241.18	3245.00
241.66	3241.00
242.13	3271.00
242.61	3275.00
243.08	3196.00
243.56	3252.00
244.03	3242.00
244.51	3324.00
244.98	3253.00
245.46	3278.00
245.93	4234.00
246.41	3195.00
246.88	3275.00
247.36	3242.00
247.83	3252.00
248.31	3252.00
248.78	3178.00
249.26	3245.00
249.73	3260.00
250.21	3266.00
250.68	3317.00
251.16	3267.00
251.63	3322.00
252.10	3300.00
252.58	3238.00
253.05	3237.00
253.53	3267.00
254.00	3237.00
254.48	3265.00
254.95	3283.00
255.43	3293.00
255.90	3255.00
256.38	3264.00
256.85	3271.00
257.33	3283.00
257.80	3378.00
258.27	3273.00
258.75	3254.00
259.22	3257.00
259.70	3278.00
260.17	3312.00
260.65	3252.00
261.12	3279.00
261.59	3347.00
262.07	3220.00
262.54	3293.00
263.02	3285.00
263.49	3204.00
263.97	3310.00
264.44	3281.00
264.91	3260.00
265.39	3301.00
265.86	3284.00
266.34	3307.00
266.81	3250.00
267.28	3287.00
267.76	3275.00
268.23	3264.00
268.71	3199.00
269.18	3232.00
269.65	3198.00
270.13	3276.00
270.60	3272.00
271.08	3227.00
271.55	3274.00
272.02	3208.00
272.50	3250.00
272.97	3199.00
273.44	3240.00
273.92	3338.00
274.39	3287.00
274.87	3269.00
275.34	3234.00
275.81	3219.00
276.29	3230.00
276.76	3241.00
277.23	3179.00
277.71	3191.00
278.18	3148.00
278.65	3309.00
279.13	3162.00
279.60	3237.00
280.07	3497.00
280.55	3455.00
281.02	3524.00
281.50	3311.00
281.97	3390.00
282.44	3309.00
282.91	3298.00
283.39	3296.00
283.86	3263.00
284.33	3276.00
284.81	3288.00
285.28	3273.00
285.75	3284.00
286.23	3292.00
286.70	3234.00
287.17	3279.00
287.65	3331.00
288.12	3257.00
288.59	3287.00
289.07	3211.00
289.54	3315.00
290.01	3245.00
290.48	3262.00
290.96	3239.00
291.43	3286.00
291.90	3328.00
292.38	3273.00
292.85	3305.00
293.32	3210.00
293.79	3308.00
294.27	3278.00
294.74	3232.00
295.21	3272.00
295.69	3282.00
296.16	3288.00
296.63	3329.00
297.10	3340.00
297.58	3277.00
298.05	3271.00
298.52	3252.00
298.99	3341.00
299.47	3265.00
299.94	3308.00
300.41	3265.00
300.88	3331.00
301.36	3301.00
301.83	3294.00
302.30	3238.00
302.77	3307.00
303.25	3305.00
303.72	3256.00
304.19	3258.00
304.66	3245.00
305.13	3257.00
305.61	3259.00
306.08	3248.00
306.55	3297.00
307.02	3215.00
307.49	3245.00
307.97	3267.00
308.44	3251.00
308.91	3284.00
309.38	3273.00
309.86	3280.00
310.33	3267.00
310.80	3273.00
311.27	3226.00
311.74	3300.00
312.21	3259.00
312.69	3308.00
313.16	3259.00
313.63	3288.00
314.10	3257.00
314.57	3267.00
315.05	3261.00
315.52	3306.00
315.99	3300.00
316.46	3274.00
316.93	3294.00
317.40	3272.00
317.88	3411.00
318.35	3241.00
318.82	3242.00
319.29	3254.00
319.76	3308.00
320.23	3335.00
320.70	3282.00
321.18	3310.00
321.65	3183.00
322.12	3235.00
322.59	3354.00
323.06	3281.00
323.53	3396.00
324.00	3239.00
324.48	3311.00
324.95	3291.00
325.42	3279.00
325.89	3244.00
326.36	3289.00
326.83	3361.00
327.30	3322.00
327.77	3330.00
328.24	3280.00
328.72	3324.00
329.19	3283.00
329.66	3276.00
330.13	3295.00
330.60	3304.00
331.07	3317.00
331.54	3364.00
332.01	3284.00
332.48	3356.00
332.95	3363.00
333.43	3350.00
333.90	3382.00
334.37	3323.00
334.84	3298.00
335.31	3444.00
335.78	3251.00
336.25	3322.00
336.72	3301.00
337.19	3287.00
337.66	3269.00
338.13	3253.00
338.60	3322.00
339.07	3309.00
339.54	3207.00
340.01	3237.00
340.49	3250.00
340.96	3271.00
341.43	3327.00
341.90	3264.00
342.37	3250.00
342.84	3275.00
343.31	3241.00
343.78	3218.00
344.25	3224.00
344.72	3222.00
345.19	3271.00
345.66	3281.00
346.13	3235.00
346.60	3240.00
347.07	3270.00
347.54	3251.00
348.01	3272.00
348.48	3248.00
348.95	3191.00
349.42	3242.00
349.89	3266.00
350.36	3306.00
350.83	3203.00
351.30	3246.00
351.77	3356.00
352.24	3251.00
352.71	3241.00
353.18	3264.00
353.65	3284.00
354.12	3241.00
354.59	3270.00
355.06	3258.00
355.53	3302.00
356.00	3220.00
356.47	3322.00
356.94	3218.00
357.41	3370.00
357.88	3272.00
358.35	3185.00
358.82	3230.00
359.28	3265.00
359.75	3263.00
360.22	3253.00
360.69	3316.00
361.16	3219.00
361.63	3241.00
362.10	3285.00
362.57	3245.00
363.04	3272.00
363.51	3354.00
363.98	3230.00
364.45	3255.00
364.92	3248.00
365.39	3239.00
365.86	3244.00
366.32	3283.00
366.79	3264.00
367.26	3882.00
367.73	3255.00
368.20	3218.00
368.67	3284.00
369.14	3213.00
369.61	3271.00
370.08	3306.00
370.55	3246.00
371.02	3777.00
371.48	3304.00
371.95	3216.00
372.42	3200.00
372.89	3261.00
373.36	3233.00
373.83	3208.00
374.30	3246.00
374.77	3288.00
375.23	3249.00
375.70	3340.00
376.17	3242.00
376.64	3256.00
377.11	3231.00
377.58	3279.00
378.05	3330.00
378.51	3300.00
378.98	3294.00
379.45	3284.00
379.92	3257.00
380.39	3380.00
380.86	3272.00
381.33	3359.00
381.79	3349.00
382.26	3239.00
382.73	3300.00
383.20	3267.00
383.67	3302.00
384.14	3287.00
384.60	3458.00
385.07	3296.00
385.54	3275.00
386.01	3274.00
386.48	3339.00
386.94	3257.00
387.41	3242.00
387.88	3346.00
388.35	3277.00
388.82	3296.00
389.28	3262.00
389.75	3282.00
390.22	3266.00
390.69	3328.00
391.16	3274.00
391.62	3284.00
392.09	3257.00
392.56	3286.00
393.03	3290.00
393.50	3389.00
393.96	3282.00
394.43	3346.00
394.90	3274.00
395.37	3332.00
395.83	3455.00
396.30	3227.00
396.77	3322.00
397.24	3286.00
397.70	3251.00
398.17	3285.00
398.64	3263.00
399.11	3286.00
399.57	3309.00
400.04	3238.00
400.51	3286.00
400.98	3239.00
401.44	3320.00
401.91	3271.00
402.38	3291.00
402.84	3253.00
403.31	3339.00
403.78	3267.00
404.25	3354.00
404.71	3381.00
405.18	3339.00
405.65	3241.00
406.12	3330.00
406.58	3302.00
407.05	3370.00
407.52	3258.00
407.98	3918.00
408.45	3267.00
408.92	3231.00
409.38	3317.00
409.85	3268.00
410.32	3321.00
410.78	3273.00
411.25	3335.00
411.72	3253.00
412.18	3260.00
412.65	3308.00
413.12	3260.00
413.59	3263.00
414.05	3281.00
414.52	3352.00
414.98	3262.00
415.45	3337.00
415.92	3304.00
416.38	3280.00
416.85	3335.00
417.32	3295.00
417.78	3262.00
418.25	3259.00
418.72	3265.00
419.18	3300.00
419.65	3225.00
420.12	3342.00
420.58	3244.00
421.05	3287.00
421.51	3241.00
421.98	3289.00
422.45	3261.00
422.91	3264.00
423.38	3280.00
423.85	3273.00
424.31	3256.00
424.78	3301.00
425.24	3236.00
425.71	3307.00
426.18	3271.00
426.64	3324.00
427.11	3299.00
427.57	3265.00
428.04	3239.00
428.51	3295.00
428.97	3243.00
429.44	3264.00
429.90	3299.00
430.37	3360.00
430.83	3257.00
431.30	3248.00
431.77	3332.00
432.23	3313.00
432.70	3299.00
433.16	3263.00
433.63	3269.00
434.09	3277.00
434.56	3307.00
435.03	3239.00
435.49	3283.00
435.96	3319.00
436.42	3233.00
436.89	3313.00
437.35	3287.00
437.82	3275.00
438.28	3239.00
438.75	3273.00
439.21	3405.00
439.68	3317.00
440.14	3256.00
440.61	3296.00
441.07	3224.00
441.54	3276.00
442.00	3387.00
442.47	3236.00
442.94	3287.00
443.40	3279.00
443.87	3223.00
444.33	3352.00
444.80	3281.00
445.26	3263.00
445.73	3250.00
446.19	3307.00
446.65	3233.00
447.12	3282.00
447.58	3233.00
448.05	3212.00
448.51	3307.00
448.98	3300.00
449.44	3278.00
449.91	3241.00
450.37	3207.00
450.84	3234.00
451.30	3245.00
451.77	3243.00
452.23	3190.00
452.70	3303.00
453.16	3250.00
453.62	3263.00
454.09	3244.00
454.55	3257.00
455.02	3235.00
455.48	3249.00
455.95	3264.00
456.41	3233.00
456.88	3275.00
457.34	3229.00
457.80	3240.00
458.27	3183.00
458.73	3217.00
459.20	3242.00
459.66	3253.00
460.13	3163.00
460.59	3176.00
461.05	3255.00
461.52	3201.00
461.98	3174.00
462.45	3116.00
462.91	3176.00
463.37	3198.00
463.84	3161.00
464.30	3172.00
464.76	3112.00
465.23	3118.00
465.69	3213.00
466.16	3163.00
466.62	3174.00
467.08	3173.00
467.55	3167.00
468.01	3175.00
468.48	3141.00
468.94	3167.00
469.40	3095.00
469.87	3130.00
470.33	3107.00
470.79	3105.00
471.26	3137.00
471.72	3090.00
472.18	3109.00
472.65	3102.00
473.11	3144.00
473.57	3108.00
474.04	3083.00
474.50	3082.00
474.96	3079.00
475.43	3104.00
475.89	3065.00
476.35	3092.00
476.82	3115.00
477.28	3095.00
477.74	3139.00
478.21	3124.00
478.67	3108.00
479.13	3054.00
479.59	3127.00
480.06	3126.00
480.52	3092.00
480.98	3047.00
481.45	3136.00
481.91	3103.00
482.37	3055.00
482.84	3060.00
483.30	3018.00
483.76	3048.00
484.22	3129.00
484.69	3098.00
485.15	3086.00
485.61	3036.00
486.07	3052.00
486.54	2995.00
487.00	3098.00
487.46	2999.00
487.92	3029.00
488.39	3059.00
488.85	3091.00
489.31	3091.00
489.77	3122.00
490.24	3053.00
490.70	3062.00
491.16	3047.00
491.62	3060.00
492.09	3039.00
492.55	3090.00
493.01	3121.00
493.47	3095.00
493.94	3071.00
494.40	3066.00
494.86	3078.00
495.32	3073.00
495.78	3103.00
496.25	3086.00
496.71	3085.00
497.17	3167.00
497.63	3161.00
498.09	3093.00
498.56	3120.00
499.02	3108.00
499.48	3210.00
499.94	3108.00
500.40	3117.00
500.87	3139.00
501.33	3138.00
501.79	3188.00
502.25	3193.00
502.71	3422.00
503.17	3178.00
503.64	3210.00
504.10	3188.00
504.56	3225.00
505.02	3267.00
505.48	3230.00
505.94	3279.00
506.40	3361.00
506.87	3321.00
507.33	3357.00
507.79	3358.00
508.25	3338.00
508.71	3375.00
509.17	3369.00
509.63	3402.00
510.10	3448.00
510.56	3477.00
511.02	3593.00
511.48	3609.00
511.94	3571.00
512.40	3567.00
512.86	3657.00
513.32	3710.00
513.78	3688.00
514.25	3855.00
514.71	4367.00
515.17	3810.00
515.63	3900.00
516.09	3967.00
516.55	3963.00
517.01	4037.00
517.47	4068.00
517.93	4090.00
518.39	4279.00
518.85	4240.00
519.32	4363.00
519.78	4443.00
520.24	4582.00
520.70	4662.00
521.16	4806.00
521.62	4840.00
522.08	4891.00
522.54	4981.00
523.00	5049.00
523.46	5196.00
523.92	5311.00
524.38	5512.00
524.84	5448.00
525.30	5551.00
525.76	5599.00
526.22	5598.00
526.68	5478.00
527.14	5655.00
527.60	5806.00
528.06	5970.00
528.52	6130.00
528.98	6218.00
529.44	6252.00
529.90	6295.00
530.36	6459.00
530.82	6507.00
531.28	6586.00
531.74	6575.00
532.20	6511.00
532.66	6499.00
533.12	6653.00
533.58	6734.00
534.04	6733.00
534.50	6880.00
534.96	6932.00
535.42	7066.00
535.88	7020.00
536.34	7088.00
536.80	6922.00
537.26	7071.00
537.72	7186.00
538.18	7339.00
538.64	7292.00
539.10	7170.00
539.56	7314.00
540.02	7074.00
540.48	7137.00
540.94	7258.00
541.40	7226.00
541.86	7354.00
542.32	7350.00
542.78	7295.00
543.24	7489.00
543.69	7518.00
544.15	7609.00
544.61	7570.00
545.07	7514.00
545.53	7601.00
545.99	7670.00
546.45	7621.00
546.91	7649.00
547.37	7614.00
547.83	7608.00
548.29	7730.00
548.74	7822.00
549.20	7781.00
549.66	7890.00
550.12	7750.00
550.58	7731.00
551.04	7815.00
551.50	7940.00
551.96	7973.00
552.42	7913.00
552.87	7862.00
553.33	7948.00
553.79	7931.00
554.25	7926.00
554.71	7928.00
555.17	8040.00
555.63	7958.00
556.08	7915.00
556.54	7882.00
557.00	7627.00
557.46	7826.00
557.92	7863.00
558.38	7614.00
558.83	7548.00
559.29	7491.00
559.75	7529.00
560.21	7520.00
560.67	7639.00
561.13	7550.00
561.58	7417.00
562.04	7354.00
562.50	7489.00
562.96	7405.00
563.42	7388.00
563.87	7212.00
564.33	7137.00
564.79	7166.00
565.25	7038.00
565.71	6964.00
566.16	6946.00
566.62	6958.00
567.08	6818.00
567.54	6815.00
568.00	6780.00
568.45	6581.00
568.91	6572.00
569.37	6589.00
569.83	6411.00
570.28	6335.00
570.74	6191.00
571.20	6162.00
571.66	6200.00
572.11	6219.00
572.57	6160.00
573.03	6135.00
573.49	5976.00
573.94	5970.00
574.40	5959.00
574.86	5838.00
575.32	5735.00
575.77	5690.00
576.23	5637.00
576.69	5689.00
577.15	5619.00
577.60	5577.00
578.06	5401.00
578.52	5494.00
578.97	5515.00
579.43	5429.00
579.89	5449.00
580.34	5428.00
580.80	5324.00
581.26	5400.00
581.72	5270.00
582.17	5280.00
582.63	5269.00
583.09	5310.00
583.54	5255.00
584.00	5172.00
584.46	5216.00
584.91	5092.00
585.37	5193.00
585.83	5019.00
586.28	5080.00
586.74	5058.00
587.20	5002.00
587.65	5042.00
588.11	4916.00
588.57	4858.00
589.02	4724.00
589.48	4663.00
589.94	4775.00
590.39	4884.00
590.85	4825.00
591.30	4814.00
591.76	4885.00
592.22	4791.00
592.67	4814.00
593.13	4788.00
593.59	4819.00
594.04	4763.00
594.50	4761.00
594.95	4787.00
595.41	4719.00
595.87	4685.00
596.32	4761.00
596.78	4773.00
597.23	4805.00
597.69	4697.00
598.15	4694.00
598.60	4698.00
599.06	4726.00
599.51	4694.00
599.97	4745.00
600.43	4706.00
600.88	4711.00
601.34	4625.00
601.79	4625.00
602.25	4732.00
602.70	4606.00
603.16	4678.00
603.61	4611.00
604.07	4613.00
604.53	4641.00
604.98	4588.00
605.44	4586.00
605.89	4547.00
606.35	4542.00
606.80	4540.00
607.26	4516.00
607.71	4506.00
608.17	4471.00
608.62	4417.00
609.08	4450.00
609.53	4455.00
609.99	4365.00
610.44	4285.00
610.90	4345.00
611.35	4267.00
611.81	4383.00
612.26	4299.00
612.72	4264.00
613.17	4348.00
613.63	4162.00
614.08	4147.00
614.54	4154.00
614.99	4130.00
615.45	4140.00
615.90	4096.00
616.36	4057.00
616.81	4053.00
617.27	4086.00
617.72	4160.00
618.18	4074.00
618.63	4029.00
619.09	3989.00
619.54	4024.00
619.99	4018.00
620.45	4063.00
620.90	4054.00
621.36	3962.00
621.81	4012.00
622.27	4019.00
622.72	4027.00
623.18	3902.00
623.63	3930.00
624.08	3981.00
624.54	3945.00
624.99	3907.00
625.45	3919.00
625.90	3894.00
626.35	3883.00
626.81	3951.00
627.26	3885.00
627.72	3896.00
628.17	3963.00
628.62	3836.00
629.08	3914.00
629.53	3907.00
629.99	3862.00
630.44	3927.00
630.89	3946.00
631.35	3928.00
631.80	3934.00
632.26	3936.00
632.71	3897.00
633.16	3887.00
633.62	3851.00
634.07	3861.00
634.52	3858.00
634.98	3868.00
635.43	3805.00
635.88	3762.00
636.34	3851.00
636.79	3822.00
637.24	3835.00
637.70	3799.00
638.15	3794.00
638.60	3752.00
639.06	3708.00
639.51	3710.00
639.96	3668.00
640.42	3697.00
640.87	3658.00
641.32	3588.00
641.78	3649.00
642.23	3611.00
642.68	3563.00
643.14	3542.00
643.59	3580.00
644.04	3496.00
644.49	3494.00
644.95	3504.00
645.40	3419.00
645.85	3489.00
646.31	3467.00
646.76	3467.00
647.21	3424.00
647.66	3433.00
648.12	3411.00
648.57	3371.00
649.02	3442.00
649.47	3375.00
649.93	3496.00
650.38	3340.00
650.83	3337.00
651.28	3335.00
651.74	3371.00
652.19	3326.00
652.64	3369.00
653.09	3330.00
653.55	3279.00
654.00	3308.00
654.45	3336.00
654.90	3301.00
655.35	3273.00
655.81	3309.00
656.26	3203.00
656.71	3230.00
657.16	3286.00
657.62	3315.00
658.07	3260.00
658.52	3239.00
658.97	3254.00
659.42	3404.00
659.88	3221.00
660.33	3269.00
660.78	3223.00
661.23	3167.00
661.68	3228.00
662.13	3143.00
662.59	3137.00
663.04	3199.00
663.49	3175.00
663.94	3180.00
664.39	3160.00
664.84	3123.00
665.30	3149.00
665.75	3105.00
666.20	3158.00
666.65	3185.00
667.10	3250.00
667.55	3196.00
668.00	3068.00
668.46	3133.00
668.91	3111.00
669.36	3212.00
669.81	3041.00
670.26	3080.00
670.71	3153.00
671.16	3129.00
671.61	3215.00
672.06	3234.00
672.52	3138.00
672.97	3104.00
673.42	3156.00
673.87	3236.00
674.32	3145.00
674.77	3143.00
675.22	3108.00
675.67	3055.00
676.12	3140.00
676.57	3106.00
677.02	3118.00
677.47	3091.00
677.93	3218.00
678.38	3100.00
678.83	3099.00
679.28	3157.00
679.73	3140.00
680.18	3130.00
680.63	3126.00
681.08	3062.00
681.53	3091.00
681.98	3108.00
682.43	3140.00
682.88	3151.00
683.33	3166.00
683.78	3196.00
684.23	3223.00
684.68	3198.00
685.13	3213.00
685.58	3250.00
686.03	3210.00
686.48	3193.00
686.93	3219.00
687.38	3207.00
687.83	3302.00
688.28	3301.00
688.73	3436.00
689.18	3418.00
689.63	3331.00
690.08	3504.00
690.53	3526.00
690.98	3555.00
691.43	3675.00
691.88	3717.00
692.33	3859.00
692.78	3939.00
693.23	4103.00
693.68	4170.00
694.13	4334.00
694.58	4455.00
695.03	4878.00
695.48	4829.00
695.93	5136.00
696.38	5355.00
696.83	5538.00
697.28	5855.00
697.72	5972.00
698.17	6212.00
698.62	6494.00
699.07	6738.00
699.52	7034.00
699.97	7283.00
700.42	7626.00
700.87	8019.00
701.32	8470.00
701.77	8639.00
702.22	9009.00
702.67	9244.00
703.11	9682.00
703.56	10193.00
704.01	10537.00
704.46	10967.00
704.91	11420.00
705.36	11753.00
705.81	12176.00
706.26	12372.00
706.70	12889.00
707.15	13255.00
707.60	13768.00
708.05	14256.00
708.50	14623.00
708.95	14967.00
709.40	15314.00
709.84	15751.00
710.29	16089.00
710.74	16544.00
711.19	16819.00
711.64	17400.00
712.09	17901.00
712.53	18130.00
712.98	18656.00
713.43	19041.00
713.88	19372.00
714.33	19569.00
714.78	19936.00
715.22	20203.00
715.67	20631.00
716.12	20763.00
716.57	20236.00
717.02	19675.00
717.46	19267.00
717.91	19441.00
718.36	19251.00
718.81	19218.00
719.26	19556.00
719.70	20024.00
720.15	20514.00
720.60	21422.00
721.05	23250.00
721.49	24454.00
721.94	25180.00
722.39	25524.00
722.84	25089.00
723.28	24415.00
723.73	24304.00
724.18	24391.00
724.63	25273.00
725.07	25400.00
725.52	25904.00
725.97	26654.00
726.42	27074.00
726.86	27774.00
727.31	27626.00
727.76	27785.00
728.21	28721.00
728.65	28927.00
729.10	28729.00
729.55	29678.00
729.99	30715.00
730.44	30970.00
730.89	31363.00
731.33	32148.00
731.78	32930.00
732.23	33904.00
732.68	34626.00
733.12	35345.00
733.57	36138.00
734.02	37147.00
734.46	37549.00
734.91	37791.00
735.36	38188.00
735.80	38534.00
736.25	38715.00
736.70	39231.00
737.14	39755.00
737.59	40094.00
738.04	40307.00
738.48	40281.00
738.93	40264.00
739.37	40925.00
739.82	41568.00
740.27	42037.00
740.71	42141.00
741.16	42184.00
741.61	42351.00
742.05	42628.00
742.50	43058.00
742.94	43556.00
743.39	44034.00
743.84	43995.00
744.28	44255.00
744.73	44439.00
745.18	44826.00
745.62	45276.00
746.07	45257.00
746.51	45369.00
746.96	45268.00
747.40	45168.00
747.85	45275.00
748.30	45485.00
748.74	45438.00
749.19	45360.00
749.63	45549.00
750.08	45758.00
750.52	45832.00
750.97	45457.00
751.42	45994.00
751.86	45855.00
752.31	45653.00
752.75	45660.00
753.20	45660.00
753.64	45971.00
754.09	45861.00
754.53	46457.00
754.98	46375.00
755.42	46198.00
755.87	46121.00
756.31	46019.00
756.76	45529.00
757.20	45295.00
757.65	45073.00
758.09	44497.00
758.54	43361.00
758.98	39761.00
759.43	31602.00
759.87	22593.00
760.32	16649.00
760.76	15755.00
761.21	19149.00
761.65	23997.00
762.10	25837.00
762.54	24400.00
762.99	23115.00
763.43	23577.00
763.88	25137.00
764.32	27133.00
764.77	29769.00
765.21	31917.00
765.66	33907.00
766.10	35780.00
766.54	37641.00
766.99	39179.00
767.43	40741.00
767.88	41808.00
768.32	42846.00
768.77	43468.00
769.21	44329.00
769.66	44657.00
770.10	45212.00
770.54	45643.00
770.99	45824.00
771.43	45628.00
771.88	45326.00
772.32	45362.00
772.76	45282.00
773.21	45388.00
773.65	45377.00
774.10	45134.00
774.54	45093.00
774.98	45389.00
775.43	45653.00
775.87	45911.00
776.31	46257.00
776.76	46134.00
777.20	45837.00
777.65	45488.00
778.09	45307.00
778.53	45028.00
778.98	44880.00
779.42	45027.00
779.86	45157.00
780.31	44718.00
780.75	45132.00
781.19	45189.00
781.64	45460.00
782.08	45464.00
782.52	45397.00
782.97	44799.00
783.41	44559.00
783.85	43968.00
784.30	43832.00
784.74	43808.00
785.18	43802.00
785.63	43613.00
786.07	44073.00
786.51	43948.00
786.95	43927.00
787.40	43901.00
787.84	43673.00
788.28	43313.00
788.73	43074.00
789.17	42623.00
789.61	42090.00
790.05	41911.00
790.50	41693.00
790.94	41482.00
791.38	41697.00
791.82	41776.00
792.27	42044.00
792.71	41835.00
793.15	41926.00
793.59	41743.00
794.04	41665.00
794.48	41255.00
794.92	41013.00
795.36	40693.00
795.81	40362.00
796.25	40266.00
796.69	40592.00
797.13	41087.00
797.57	41369.00
798.02	41818.00
798.46	41776.00
798.90	41645.00
799.34	41045.00
799.79	40696.00
800.23	39778.00
800.67	39877.00
801.11	39696.00
801.55	39412.00
801.99	39513.00
802.44	39747.00
802.88	40018.00
803.32	40159.00
803.76	40316.00
804.20	40304.00
804.64	40587.00
805.09	40120.00
805.53	39998.00
805.97	39704.00
806.41	39195.00
806.85	38916.00
807.29	38460.00
807.74	38717.00
808.18	38677.00
808.62	38534.00
809.06	38652.00
809.50	38669.00
809.94	38798.00
810.38	38654.00
810.82	38822.00
811.27	38394.00
811.71	37836.00
812.15	36981.00
812.59	36057.00
813.03	35073.00
813.47	33869.00
813.91	33173.00
814.35	32624.00
814.79	32502.00
815.23	32218.00
815.67	31877.00
816.12	31970.00
816.56	31651.00
817.00	32103.00
817.44	32133.00
817.88	32349.00
818.32	31431.00
818.76	31786.00
819.20	31463.00
819.64	32108.00
820.08	32526.00
820.52	33149.00
820.96	34208.00
821.40	33549.00
821.84	32780.00
822.28	30729.00
822.72	30530.00
823.16	30394.00
823.60	31677.00
824.04	33798.00
824.48	34565.00
824.92	34688.00
825.36	34472.00
825.80	33793.00
826.24	33565.00
826.68	33521.00
827.12	33253.00
827.56	32894.00
828.00	32645.00
828.44	32664.00
828.88	33360.00
829.32	33764.00
829.76	33760.00
830.20	34218.00
830.64	33683.00
831.08	33457.00
831.52	33030.00
831.96	32772.00
832.40	32227.00
832.84	32734.00
833.28	33202.00
833.72	33715.00
834.16	34312.00
834.60	35293.00
835.04	35699.00
835.48	35989.00
835.91	35843.00
836.35	35455.00
836.79	35066.00
837.23	35145.00
837.67	34754.00
838.11	34486.00
838.55	34593.00
838.99	34549.00
839.43	35165.00
839.87	35647.00
840.30	35987.00
840.74	36340.00
841.18	36661.00
841.62	36929.00
842.06	36711.00
842.50	36816.00
842.94	36173.00
843.38	35567.00
843.81	35016.00
844.25	34634.00
844.69	34457.00
845.13	34521.00
845.57	34679.00
846.01	35043.00
846.45	35304.00
846.88	35624.00
847.32	36169.00
847.76	36609.00
848.20	36826.00
848.64	36130.00
849.08	35629.00
849.51	35441.00
849.95	34440.00
850.39	34211.00
850.83	34850.00
851.27	34511.00
851.70	34204.00
852.14	33924.00
852.58	33481.00
853.02	32632.00
853.46	31656.00
853.89	31494.00
854.33	31449.00
854.77	32605.00
855.21	34661.00
855.65	35700.00
856.08	36075.00
856.52	36234.00
856.96	35958.00
857.40	35299.00
857.83	34452.00
858.27	34083.00
858.71	33575.00
859.15	33435.00
859.58	33957.00
860.02	34168.00
860.46	34622.00
860.89	35369.00
861.33	35603.00
861.77	35997.00
862.21	36122.00
862.64	36574.00
863.08	36150.00
863.52	35680.00
863.95	34935.00
864.39	34373.00
864.83	33165.00
865.27	31817.00
865.70	31641.00
866.14	31029.00
866.58	30933.00
867.01	32538.00
867.45	33738.00
867.89	34544.00
868.32	35226.00
868.76	35640.00
869.20	35748.00
869.63	35452.00
870.07	35034.00
870.51	34127.00
870.94	33500.00
871.38	32829.00
871.82	32273.00
872.25	32089.00
872.69	32380.00
873.13	32400.00
873.56	32916.00
874.00	33163.00
874.43	33898.00
874.87	34266.00
875.31	34871.00
875.74	34845.00
876.18	35044.00
876.61	34847.00
877.05	34283.00
877.49	33932.00
877.92	33420.00
878.36	32710.00
878.79	32182.00
879.23	31740.00
879.67	31320.00
880.10	31296.00
880.54	31489.00
880.97	31855.00
881.41	32968.00
881.84	33728.00
882.28	34343.00
882.72	34841.00
883.15	35282.00
883.59	35188.00
884.02	35041.00
884.46	34629.00
884.89	34160.00
885.33	33112.00
885.76	32472.00
886.20	31715.00
886.63	31192.00
887.07	31060.00
887.50	31242.00
887.94	31443.00
888.37	31775.00
888.81	32266.00
889.24	32695.00
889.68	33134.00
890.11	33415.00
890.55	33900.00
890.98	34054.00
891.42	34210.00
891.85	33588.00
892.29	33189.00
892.72	32380.00
893.16	31239.00
893.59	30714.00
894.03	29619.00
894.46	28692.00
894.90	27692.00
895.33	26907.00
895.77	26812.00
896.20	26605.00
896.63	26559.00
897.07	26943.00
897.50	26608.00
897.94	26654.00
898.37	27834.00
898.81	26279.00
899.24	25668.00
899.68	27239.00
900.11	26721.00
900.54	25666.00
900.98	25442.00
901.41	25054.00
901.85	25254.00
902.28	25660.00
902.71	25971.00
903.15	26803.00
903.58	27625.00
904.02	27850.00
904.45	27926.00
904.88	27877.00
905.32	27468.00
905.75	27564.00
906.18	26722.00
906.62	26741.00
907.05	26090.00
907.48	26172.00
907.92	25821.00
908.35	25789.00
908.79	25160.00
909.22	25010.00
909.65	24457.00
910.09	24581.00
910.52	24223.00
910.95	24227.00
911.38	24774.00
911.82	23866.00
912.25	24466.00
912.68	24799.00
913.12	24897.00
913.55	24828.00
913.98	25542.00
914.42	26482.00
914.85	26943.00
915.28	25604.00
915.72	25076.00
916.15	24636.00
916.58	24800.00
917.01	24300.00
917.45	23343.00
917.88	24228.00
918.31	24515.00
918.74	25393.00
919.18	26175.00
919.61	25824.00
920.04	26635.00
920.47	26787.00
920.91	27076.00
921.34	27075.00
921.77	27013.00
922.20	27718.00
922.64	27342.00
923.07	27180.00
923.50	26735.00
923.93	26478.00
924.37	25812.00
924.80	25505.00
925.23	25022.00
925.66	24271.00
926.09	23201.00
926.53	22801.00
926.96	21940.00
927.39	21093.00
927.82	20178.00
928.25	19355.00
928.69	18951.00
929.12	18537.00
929.55	17679.00
929.98	16836.00
930.41	15955.00
930.84	15063.00
931.28	14060.00
931.71	12926.00
932.14	11693.00
932.57	11167.00
933.00	10564.00
933.43	10055.00
933.86	9621.00
934.30	9003.00
934.73	10232.00
935.16	9992.00
935.59	9147.00
936.02	9667.00
936.45	9619.00
936.88	9381.00
937.31	10429.00
937.75	10814.00
938.18	11370.00
938.61	12019.00
939.04	12652.00
939.47	12334.00
939.90	11472.00
940.33	11097.00
940.76	10307.00
941.19	9884.00
941.62	9599.00
942.05	9605.00
942.48	8652.00
942.91	8456.00
943.35	9121.00
943.78	8596.00
944.21	8422.00
944.64	9159.00
945.07	9427.00
945.50	9201.00
945.93	9533.00
946.36	9831.00
946.79	10000.00
947.22	10706.00
947.65	10466.00
948.08	9883.00
948.51	10509.00
948.94	10980.00
949.37	10401.00
949.80	10003.00
950.23	10122.00
950.66	10645.00
951.09	10586.00
951.52	10135.00
951.95	10231.00
952.38	10627.00
952.81	11266.00
953.24	11915.00
953.67	12216.00
954.10	11843.00
954.53	12347.00
954.96	12271.00
955.39	12539.00
955.82	13273.00
956.25	12744.00
956.68	13025.00
957.11	13293.00
957.53	12915.00
957.96	12631.00
958.39	12616.00
958.82	11944.00
959.25	12388.00
959.68	13054.00
960.11	13435.00
960.54	13441.00
960.97	14123.00
961.40	14952.00
961.83	14687.00
962.26	14800.00
962.68	16154.00
963.11	16369.00
963.54	16297.00
963.97	16514.00
964.40	16334.00
964.83	16756.00
965.26	16856.00
965.69	16864.00
966.11	16472.00
966.54	16644.00
966.97	17448.00
967.40	17652.00
967.83	17698.00
968.26	17717.00
968.69	17880.00
969.11	18021.00
969.54	17752.00
969.97	18023.00
970.40	18388.00
970.83	18425.00
971.26	18727.00
971.68	18737.00
972.11	18702.00
972.54	19097.00
972.97	18801.00
973.40	18451.00
973.82	18411.00
974.25	18341.00
974.68	18042.00
975.11	17793.00
975.54	17467.00
975.96	17198.00
976.39	17411.00
976.82	17378.00
977.25	17397.00
977.67	17112.00
978.10	17490.00
978.53	17770.00
978.96	18235.00
979.38	18491.00
979.81	18766.00
980.24	19474.00
980.67	19729.00
981.09	19783.00
981.52	20125.00
981.95	20246.00
982.38	20185.00
982.80	20250.00
983.23	20614.00
983.66	20662.00
984.08	20367.00
984.51	20165.00
984.94	20096.00
985.37	19760.00
985.79	19406.00
986.22	18912.00
986.65	18762.00
987.07	18554.00
987.50	18524.00
987.93	18708.00
988.35	18802.00
988.78	18963.00
989.21	18929.00
989.63	19323.00
990.06	19760.00
990.49	19989.00
990.91	20283.00
991.34	20524.00
991.77	20532.00
992.19	20439.00
992.62	20264.00
993.05	20200.00
993.47	20007.00
993.90	19685.00
994.32	19364.00
994.75	19022.00
995.18	18798.00
995.60	18659.00
996.03	18216.00
996.45	17999.00
996.88	17935.00
997.31	18014.00
997.73	17969.00
998.16	17993.00
998.58	18230.00
999.01	18253.00
999.44	18483.00
999.86	18716.00
1000.29	18821.00
1000.71	18960.00
1001.14	19062.00
1001.56	18955.00
1001.99	18765.00
1002.41	18469.00
1002.84	18064.00
1003.27	17543.00
1003.69	17421.00
1004.12	16944.00
1004.54	16659.00
1004.97	16452.00
1005.39	16278.00
1005.82	16196.00
1006.24	16138.00
1006.67	16145.00
1007.09	16119.00
1007.52	15990.00
1007.94	16117.00
1008.37	16135.00
1008.79	16268.00
1009.22	16276.00
1009.64	16455.00
1010.07	16512.00
1010.49	16524.00
1010.92	16463.00
1011.34	16503.00
1011.77	16469.00
1012.19	16334.00
1012.62	16166.00
1013.04	15923.00
1013.46	15831.00
1013.89	15318.00
1014.31	15075.00
1014.74	14761.00
1015.16	14615.00
1015.59	14536.00
1016.01	14534.00
1016.44	14643.00
1016.86	15516.00
1017.28	14821.00
1017.71	14842.00
1018.13	15117.00
1018.56	15198.00
1018.98	15447.00
1019.40	15411.00
1019.83	15472.00
1020.25	15457.00
1020.68	15509.00
1021.10	15654.00
1021.52	15748.00
1021.95	15989.00
1022.37	15907.00
1022.79	15735.00
1023.22	15667.00
1023.64	15482.00
1024.07	15254.00
1024.49	15112.00
1024.91	14843.00
1025.34	14623.00
1025.76	14663.00
1026.18	14408.00
1026.61	14430.00
1027.03	14350.00
1027.45	14469.00
1027.88	14369.00
1028.30	14630.00
1028.72	14784.00
1029.15	14801.00
1029.57	14913.00
1029.99	14837.00
1030.41	14740.00
1030.84	14758.00
1031.26	14726.00
1031.68	14601.00
1032.11	14409.00
1032.53	14274.00
1032.95	14088.00
1033.37	13833.00
1033.80	13602.00
1034.22	13465.00
1034.64	13167.00
1035.06	13032.00
1035.49	12789.00
1035.91	12687.00
1036.33	12487.00
1036.75	12514.00
1037.18	12438.00
1037.60	12442.00
1038.02	12384.00
1038.44	12370.00
1038.87	12370.00
1039.29	12346.00
1039.71	12368.00
1040.13	12599.00
1040.55	12439.00
1040.98	12539.00
1041.40	12290.00
1041.82	12176.00
1042.24	12087.00
1042.66	11947.00
1043.09	11779.00
1043.51	11617.00
1043.93	11448.00
1044.35	11133.00
1044.77	11022.00
1045.20	10935.00
1045.62	10808.00
1046.04	10689.00
1046.46	10534.00
1046.88	10387.00
1047.30	10413.00
1047.72	10254.00
1048.15	10228.00
1048.57	10140.00
1048.99	10081.00
1049.41	10111.00
1049.83	10068.00
1050.25	10127.00
1050.67	10025.00
1051.09	9972.00
1051.52	9934.00
1051.94	9875.00
1052.36	9805.00
1052.78	9722.00
1053.20	9774.00
1053.62	9665.00
1054.04	9496.00
1054.46	9500.00
1054.88	9391.00
1055.30	9263.00
1055.72	9173.00
1056.14	9108.00
1056.57	9036.00
1056.99	8852.00
1057.41	8676.00
1057.83	8700.00
1058.25	8536.00
1058.67	8416.00
1059.09	8291.00
1059.51	8149.00
1059.93	8152.00
1060.35	8051.00
1060.77	8079.00
1061.19	8015.00
1061.61	7991.00
1062.03	7970.00
1062.45	7860.00
1062.87	7949.00
1063.29	7821.00
1063.71	7725.00
1064.13	7655.00
1064.55	7707.00
1064.97	7655.00
1065.39	7627.00
1065.81	7504.00
1066.23	7497.00
1066.65	7452.00
1067.07	7408.00
1067.49	7298.00
1067.91	7142.00
1068.33	7132.00
1068.75	7101.00
1069.17	6950.00
1069.59	7017.00
1070.00	6905.00
1070.42	6818.00
1070.84	6816.00
1071.26	6650.00
1071.68	6744.00
1072.10	6672.00
1072.52	6643.00
1072.94	6526.00
1073.36	6619.00
1073.78	6544.00
1074.20	6550.00
1074.62	6525.00
1075.03	6494.00
1075.45	6527.00
1075.87	6477.00
1076.29	6398.00
1076.71	6435.00
1077.13	6357.00
1077.55	6267.00
1077.97	6286.00
1078.38	6145.00
1078.80	6146.00
1079.22	6119.00
1079.64	5978.00
1080.06	5935.00
1080.48	5936.00
1080.89	5907.00
1081.31	5869.00
1081.73	5771.00
1082.15	5741.00
1082.57	5763.00
1082.99	5673.00
1083.40	5614.00
1083.82	5678.00
1084.24	5530.00
1084.66	5446.00
1085.08	5503.00
1085.49	5467.00
1085.91	5513.00
1086.33	6465.00
1086.75	5450.00
1087.17	5450.00
1087.58	5468.00
1088.00	5407.00
1088.42	5402.00
1088.84	5357.00
1089.25	5254.00
1089.67	5258.00
1090.09	5195.00
1090.51	5071.00
1090.92	5121.00
1091.34	5037.00
1091.76	4977.00
1092.18	4893.00
1092.59	4833.00
1093.01	4858.00
1093.43	4807.00
1093.84	4720.00
1094.26	4799.00
1094.68	4655.00
1095.10	4624.00
1095.51	4641.00
1095.93	4618.00
1096.35	4650.00
1096.76	4598.00
1097.18	4607.00
1097.60	4571.00
1098.01	4561.00
1098.43	4445.00
1098.85	4439.00
1099.26	4400.00
1099.68	4431.00
1100.10	4306.00
1100.51	4232.00
1100.93	4180.00
1101.35	4231.00
1101.76	4173.00
1102.18	4509.00
1102.60	4145.00
1103.01	4034.00
1103.43	4118.00
1103.84	4078.00
1104.26	4001.00
1104.68	3999.00
1105.09	3955.00
1105.51	3963.00
1105.92	4010.00
1106.34	3882.00
1106.76	3914.00
1107.17	3865.00
1107.59	3841.00
1108.00	3736.00
1108.42	3702.00
1108.83	3665.00
1109.25	3664.00
1109.67	3618.00
1110.08	3635.00
1110.50	3576.00
1110.91	3555.00
1111.33	3532.00
1111.74	3448.00
1112.16	3493.00
1112.57	3458.00
1112.99	3412.00
1113.41	3382.00
1113.82	3303.00
1114.24	3298.00
1114.65	3248.00
1115.07	3153.00
1115.48	3081.00
1115.90	2177.00
1116.31	2203.00
1116.73	2200.00
1117.14	2200.00
>>>>>End Processed Spectral Data<<<<<
