SpectraSuite Data File
++++++++++++++++++++++++++++++++++++
Date: Thu Feb 11 08:39:28 EET 2016
User: OO Maya
Dark Spectrum Present: No
Reference Spectrum Present: No
Number of Sampled Component Spectra: 1
Spectrometers: MAYP11278
Integration Time (usec): 100000 (MAYP11278)
Spectra Averaged: 10 (MAYP11278)
Boxcar Smoothing: 0 (MAYP11278)
Correct for Electrical Dark: No (MAYP11278)
Strobe/Lamp Enabled: No (MAYP11278)
Correct for Detector Non-linearity: No (MAYP11278)
Correct for Stray Light: No (MAYP11278)
Number of Pixels in Processed Spectrum: 2068
>>>>>Begin Processed Spectral Data<<<<<
188,14	2291,30
188,62	2212,90
189,09	2182,30
189,57	2183,80
190,05	2296,50
190,53	2299,90
191,01	2306,00
191,49	2310,00
191,97	2314,00
192,44	2307,90
192,92	2302,30
193,40	2297,80
193,88	2306,70
194,36	2307,30
194,84	2307,20
195,31	2303,90
195,79	2309,30
196,27	2302,90
196,75	2303,80
197,23	2327,30
197,70	2306,00
198,18	2299,50
198,66	2303,40
199,14	2300,60
199,62	2310,10
200,09	2310,40
200,57	2299,90
201,05	2301,90
201,53	2312,70
202,01	2307,50
202,48	2314,70
202,96	2301,40
203,44	2315,00
203,92	2298,80
204,40	2310,70
204,87	2317,50
205,35	2304,20
205,83	2300,40
206,31	2321,10
206,78	2301,20
207,26	2312,70
207,74	2333,60
208,22	2315,30
208,69	2318,20
209,17	2307,70
209,65	2314,50
210,13	2309,40
210,60	2315,50
211,08	2308,30
211,56	2315,90
212,04	2312,70
212,51	2308,90
212,99	2323,00
213,47	2317,20
213,95	2308,20
214,42	2329,60
214,90	2312,40
215,38	2324,80
215,85	2314,90
216,33	2317,60
216,81	2319,70
217,29	2317,20
217,76	2310,40
218,24	2315,20
218,72	2322,90
219,19	2305,00
219,67	2307,80
220,15	2311,40
220,62	2310,80
221,10	2335,80
221,58	2310,80
222,05	2321,70
222,53	2312,10
223,01	2321,60
223,49	2319,50
223,96	2323,10
224,44	2317,60
224,92	2314,20
225,39	2308,60
225,87	2316,20
226,35	2314,30
226,82	2317,50
227,30	2327,70
227,77	2319,40
228,25	2327,20
228,73	2321,20
229,20	2324,70
229,68	2317,90
230,16	2320,90
230,63	2322,50
231,11	2328,40
231,59	2338,20
232,06	2327,70
232,54	2325,20
233,02	2318,40
233,49	2327,00
233,97	2331,50
234,44	2356,80
234,92	2330,20
235,40	2321,00
235,87	2333,00
236,35	2324,70
236,82	2338,70
237,30	2351,80
237,78	2332,20
238,25	2337,30
238,73	2338,10
239,20	2344,40
239,68	2340,60
240,16	2330,40
240,63	2346,00
241,11	2354,70
241,58	2350,70
242,06	2359,90
242,53	2366,50
243,01	2367,60
243,49	2359,10
243,96	2365,00
244,44	2383,10
244,91	2400,40
245,39	2398,30
245,86	2436,80
246,34	2813,40
246,82	2450,80
247,29	2494,20
247,77	2532,80
248,24	2592,40
248,72	2654,20
249,19	2667,20
249,67	2721,20
250,14	2807,90
250,62	2925,90
251,09	3110,70
251,57	3580,20
252,04	4510,40
252,52	5723,00
253,00	11349,50
253,47	32224,60
253,95	49341,00
254,42	52698,50
254,90	17099,30
255,37	4956,10
255,85	3271,60
256,32	2891,90
256,80	2755,50
257,27	2672,90
257,75	2609,90
258,22	2582,50
258,70	2529,50
259,17	2501,20
259,65	2478,10
260,12	2460,70
260,59	2450,20
261,07	2421,60
261,54	2409,90
262,02	2410,10
262,49	2396,30
262,97	2392,10
263,44	2385,00
263,92	2365,50
264,39	2379,80
264,87	2391,00
265,34	2410,20
265,82	2425,80
266,29	2398,70
266,76	2366,10
267,24	2344,20
267,71	2346,70
268,19	2350,70
268,66	2347,60
269,14	2335,30
269,61	2333,50
270,09	2337,60
270,56	2348,00
271,03	2350,10
271,51	2333,70
271,98	2337,80
272,46	2330,80
272,93	2323,00
273,40	2322,90
273,88	2337,60
274,35	2363,80
274,83	2337,00
275,30	2351,80
275,78	2351,60
276,25	2349,10
276,72	2337,30
277,20	2340,40
277,67	2325,40
278,14	2324,20
278,62	2322,60
279,09	2370,10
279,57	2331,40
280,04	2335,50
280,51	2372,80
280,99	2353,40
281,46	2366,20
281,93	2341,20
282,41	2363,50
282,88	2355,20
283,36	2354,00
283,83	2344,40
284,30	2329,70
284,78	2321,50
285,25	2332,70
285,72	2326,30
286,20	2329,20
286,67	2335,20
287,14	2318,70
287,62	2338,70
288,09	2341,00
288,56	2333,00
289,04	2355,70
289,51	2376,30
289,98	2417,70
290,46	2358,60
290,93	2342,50
291,40	2323,80
291,88	2331,60
292,35	2350,70
292,82	2334,30
293,29	2347,80
293,77	2333,70
294,24	2341,20
294,71	2350,20
295,19	2356,00
295,66	2387,30
296,13	2482,80
296,61	2974,20
297,08	3670,50
297,55	3610,60
298,02	2644,40
298,50	2385,90
298,97	2338,60
299,44	2347,60
299,91	2332,80
300,39	2342,20
300,86	2329,20
301,33	2351,10
301,81	2380,80
302,28	2478,80
302,75	2544,10
303,22	2462,50
303,70	2359,80
304,17	2325,70
304,64	2326,10
305,11	2321,00
305,58	2331,20
306,06	2331,90
306,53	2335,00
307,00	2339,40
307,47	2325,80
307,95	2334,40
308,42	2341,80
308,89	2340,50
309,36	2358,00
309,83	2361,60
310,31	2379,00
310,78	2422,80
311,25	2481,80
311,72	2595,90
312,20	2960,50
312,67	4212,90
313,14	6309,30
313,61	6905,30
314,08	5080,90
314,56	2936,50
315,03	2459,30
315,50	2369,80
315,97	2362,20
316,44	2354,90
316,91	2339,50
317,39	2334,90
317,86	2336,80
318,33	2360,80
318,80	2333,90
319,27	2325,80
319,74	2317,20
320,22	2332,80
320,69	2342,20
321,16	2331,70
321,63	2322,50
322,10	2309,90
322,57	2315,40
323,04	2341,70
323,52	2319,50
323,99	2341,40
324,46	2315,50
324,93	2326,90
325,40	2312,20
325,87	2320,70
326,34	2319,60
326,82	2319,10
327,29	2323,90
327,76	2326,90
328,23	2325,60
328,70	2320,30
329,17	2320,10
329,64	2313,00
330,11	2316,50
330,58	2312,80
331,05	2326,90
331,53	2326,00
332,00	2338,60
332,47	2322,30
332,94	2345,70
333,41	2332,00
333,88	2342,10
334,35	2391,70
334,82	2476,80
335,29	2453,70
335,76	2387,30
336,23	2315,40
336,70	2324,20
337,18	2318,50
337,65	2320,00
338,12	2314,70
338,59	2317,80
339,06	2326,90
339,53	2327,20
340,00	2312,00
340,47	2314,70
340,94	2305,80
341,41	2322,10
341,88	2327,60
342,35	2311,60
342,82	2321,20
343,29	2323,80
343,76	2320,20
344,23	2314,00
344,70	2318,10
345,17	2318,20
345,64	2318,60
346,11	2321,50
346,58	2311,80
347,05	2311,00
347,52	2332,60
347,99	2317,00
348,46	2329,30
348,93	2320,20
349,40	2315,40
349,87	2317,40
350,34	2324,80
350,81	2315,70
351,28	2314,60
351,75	2323,50
352,22	2333,50
352,69	2320,90
353,16	2315,50
353,63	2324,60
354,10	2327,70
354,57	2329,90
355,04	2332,60
355,51	2324,90
355,98	2337,60
356,45	2322,40
356,92	2339,50
357,39	2324,80
357,86	2363,50
358,33	2350,10
358,80	2342,50
359,27	2346,30
359,74	2358,90
360,21	2363,50
360,68	2381,00
361,14	2400,40
361,61	2391,10
362,08	2408,80
362,55	2442,50
363,02	2528,80
363,49	2769,30
363,96	3172,80
364,43	3549,00
364,90	4409,80
365,37	7047,50
365,84	7759,00
366,31	4756,10
366,77	3574,80
367,24	3076,90
367,71	2733,30
368,18	2421,30
368,65	2387,90
369,12	2391,50
369,59	2366,20
370,06	2368,90
370,53	2361,90
370,99	2359,80
371,46	2456,80
371,93	2357,80
372,40	2354,40
372,87	2349,80
373,34	2358,90
373,81	2359,00
374,27	2357,10
374,74	2352,60
375,21	2363,80
375,68	2347,10
376,15	2374,00
376,62	2358,60
377,09	2351,80
377,55	2351,10
378,02	2364,00
378,49	2367,60
378,96	2367,40
379,43	2370,20
379,90	2369,80
380,36	2378,70
380,83	2379,10
381,30	2376,60
381,77	2383,80
382,24	2385,20
382,71	2362,90
383,17	2380,30
383,64	2379,30
384,11	2383,00
384,58	2382,20
385,05	2425,60
385,51	2383,20
385,98	2377,90
386,45	2371,70
386,92	2399,50
387,39	2383,30
387,85	2371,80
388,32	2392,50
388,79	2385,00
389,26	2402,50
389,72	2383,50
390,19	2396,90
390,66	2399,60
391,13	2400,90
391,59	2397,20
392,06	2396,80
392,53	2399,20
393,00	2388,20
393,46	2389,70
393,93	2412,60
394,40	2394,70
394,87	2407,20
395,33	2389,00
395,80	2406,50
396,27	2444,00
396,74	2389,90
397,20	2402,30
397,67	2408,50
398,14	2395,40
398,61	2403,10
399,07	2403,90
399,54	2409,00
400,01	2421,90
400,47	2416,40
400,94	2433,90
401,41	2436,10
401,88	2460,10
402,34	2501,80
402,81	2613,80
403,28	3043,70
403,74	4008,40
404,21	5002,10
404,68	6119,20
405,14	9330,60
405,61	7214,40
406,08	3411,10
406,54	2726,70
407,01	2659,70
407,48	2698,90
407,95	2769,70
408,41	2942,20
408,88	2652,20
409,35	2448,30
409,81	2428,30
410,28	2408,30
410,74	2417,70
411,21	2396,10
411,68	2416,30
412,14	2396,60
412,61	2389,10
413,08	2397,50
413,54	2398,00
414,01	2396,60
414,48	2402,40
414,94	2405,40
415,41	2385,50
415,88	2399,60
416,34	2395,10
416,81	2383,10
417,27	2397,60
417,74	2384,90
418,21	2385,30
418,67	2387,70
419,14	2390,60
419,60	2389,60
420,07	2376,10
420,54	2389,10
421,00	2374,30
421,47	2382,40
421,93	2375,50
422,40	2382,50
422,87	2373,20
423,33	2379,30
423,80	2383,30
424,26	2384,20
424,73	2376,40
425,19	2385,40
425,66	2376,90
426,13	2387,20
426,59	2377,60
427,06	2389,10
427,52	2389,50
427,99	2391,30
428,45	2369,20
428,92	2389,60
429,38	2385,90
429,85	2388,20
430,32	2400,00
430,78	2425,20
431,25	2404,10
431,71	2421,40
432,18	2458,80
432,64	2485,80
433,11	2525,20
433,57	2624,50
434,04	2915,20
434,50	3934,50
434,97	7091,50
435,43	11675,10
435,90	14961,00
436,36	21578,70
436,83	13828,70
437,29	4765,70
437,76	3098,90
438,22	2697,90
438,69	2548,10
439,15	2485,70
439,62	2480,80
440,08	2436,60
440,55	2420,80
441,01	2409,70
441,48	2381,90
441,94	2384,40
442,41	2402,00
442,87	2367,90
443,34	2375,30
443,80	2370,20
444,27	2352,40
444,73	2382,80
445,20	2365,90
445,66	2361,70
446,12	2362,20
446,59	2359,10
447,05	2359,80
447,52	2357,40
447,98	2351,70
448,45	2348,00
448,91	2358,80
449,38	2353,10
449,84	2349,90
450,30	2342,20
450,77	2346,10
451,23	2346,60
451,70	2345,10
452,16	2351,80
452,63	2341,00
453,09	2347,90
453,55	2345,90
454,02	2344,10
454,48	2344,90
454,95	2347,50
455,41	2338,60
455,87	2341,20
456,34	2349,10
456,80	2335,20
457,27	2350,50
457,73	2338,50
458,19	2332,90
458,66	2335,70
459,12	2339,70
459,58	2333,10
460,05	2355,50
460,51	2338,70
460,98	2328,30
461,44	2349,50
461,90	2348,20
462,37	2328,10
462,83	2325,00
463,29	2341,30
463,76	2331,50
464,22	2336,60
464,68	2339,00
465,15	2328,10
465,61	2331,00
466,07	2337,90
466,54	2332,50
467,00	2333,80
467,46	2335,80
467,93	2334,40
468,39	2334,30
468,85	2331,60
469,32	2331,50
469,78	2328,70
470,24	2329,90
470,71	2334,70
471,17	2326,30
471,63	2329,30
472,10	2327,70
472,56	2324,30
473,02	2332,10
473,48	2335,80
473,95	2329,80
474,41	2322,70
474,87	2328,00
475,34	2320,70
475,80	2328,90
476,26	2327,70
476,72	2331,80
477,19	2326,30
477,65	2329,90
478,11	2337,30
478,58	2331,30
479,04	2331,90
479,50	2320,20
479,96	2340,00
480,43	2329,70
480,89	2332,80
481,35	2320,00
481,81	2325,20
482,28	2328,60
482,74	2326,80
483,20	2324,60
483,66	2325,70
484,13	2336,10
484,59	2341,30
485,05	2336,60
485,51	2337,80
485,97	2328,30
486,44	2335,70
486,90	2332,20
487,36	2338,90
487,82	2328,70
488,29	2330,60
488,75	2337,10
489,21	2346,20
489,67	2341,10
490,13	2347,50
490,60	2335,10
491,06	2351,40
491,52	2362,80
491,98	2364,40
492,44	2354,50
492,90	2354,60
493,37	2340,20
493,83	2337,70
494,29	2335,40
494,75	2331,60
495,21	2326,10
495,67	2324,90
496,14	2329,70
496,60	2322,30
497,06	2326,80
497,52	2345,10
497,98	2340,10
498,44	2323,00
498,91	2329,20
499,37	2320,40
499,83	2350,70
500,29	2328,00
500,75	2318,40
501,21	2326,20
501,67	2318,30
502,14	2332,60
502,60	2327,10
503,06	2371,80
503,52	2327,00
503,98	2334,40
504,44	2335,20
504,90	2326,00
505,36	2329,60
505,82	2316,00
506,29	2323,90
506,75	2328,50
507,21	2317,10
507,67	2323,50
508,13	2322,70
508,59	2317,30
509,05	2315,40
509,51	2315,10
509,97	2317,70
510,43	2318,90
510,89	2318,10
511,35	2323,10
511,82	2328,20
512,28	2314,60
512,74	2307,50
513,20	2313,00
513,66	2322,60
514,12	2307,80
514,58	2327,40
515,04	2335,20
515,50	2308,40
515,96	2321,50
516,42	2328,00
516,88	2323,10
517,34	2343,00
517,80	2327,00
518,26	2323,20
518,72	2354,80
519,18	2318,50
519,64	2314,30
520,10	2312,70
520,56	2315,00
521,02	2323,20
521,48	2319,90
521,94	2323,20
522,40	2316,10
522,86	2304,50
523,32	2334,00
523,78	2322,00
524,24	2315,20
524,70	2341,50
525,16	2319,60
525,62	2328,70
526,08	2331,90
526,54	2323,50
527,00	2319,30
527,46	2317,40
527,92	2320,40
528,38	2325,40
528,84	2320,90
529,30	2315,60
529,76	2312,20
530,22	2324,30
530,68	2327,70
531,14	2314,70
531,60	2329,30
532,06	2321,70
532,52	2322,50
532,98	2319,10
533,44	2330,90
533,90	2323,10
534,36	2326,50
534,82	2326,50
535,28	2323,90
535,73	2332,20
536,19	2328,80
536,65	2339,40
537,11	2323,20
537,57	2343,50
538,03	2342,80
538,49	2346,90
538,95	2369,20
539,41	2369,90
539,87	2415,50
540,33	2367,90
540,79	2410,00
541,24	2424,70
541,70	2450,60
542,16	2516,30
542,62	2567,50
543,08	2616,50
543,54	2715,50
544,00	2798,10
544,46	2997,70
544,91	3567,10
545,37	6592,50
545,83	19830,40
546,29	35496,20
546,75	29331,90
547,21	11191,50
547,67	4870,00
548,13	3506,20
548,58	2975,10
549,04	2728,80
549,50	2600,80
549,96	2551,90
550,42	2474,10
550,88	2441,80
551,33	2435,10
551,79	2413,10
552,25	2415,10
552,71	2392,80
553,17	2376,70
553,63	2378,50
554,08	2364,50
554,54	2351,40
555,00	2353,00
555,46	2349,20
555,92	2354,00
556,37	2343,40
556,83	2348,40
557,29	2326,90
557,75	2338,80
558,21	2351,30
558,66	2328,60
559,12	2330,20
559,58	2327,10
560,04	2325,50
560,50	2323,70
560,95	2325,90
561,41	2326,40
561,87	2326,70
562,33	2323,10
562,78	2321,60
563,24	2327,30
563,70	2328,70
564,16	2316,60
564,61	2323,90
565,07	2319,50
565,53	2321,20
565,99	2323,60
566,44	2333,70
566,90	2321,30
567,36	2316,80
567,82	2328,40
568,27	2330,00
568,73	2322,80
569,19	2325,80
569,65	2336,80
570,10	2321,40
570,56	2323,20
571,02	2327,00
571,47	2331,80
571,93	2330,00
572,39	2334,80
572,85	2336,60
573,30	2334,60
573,76	2342,70
574,22	2353,50
574,67	2378,40
575,13	2392,00
575,59	2410,50
576,04	2555,90
576,50	3295,80
576,96	6041,60
577,42	7046,10
577,87	4477,40
578,33	3252,50
578,79	4443,80
579,24	7427,60
579,70	6458,90
580,16	3703,40
580,61	2773,90
581,07	2537,20
581,53	2453,10
581,98	2407,40
582,44	2388,50
582,89	2365,30
583,35	2368,10
583,81	2368,10
584,26	2362,80
584,72	2363,00
585,18	2350,70
585,63	2372,20
586,09	2345,00
586,55	2345,00
587,00	2352,90
587,46	2359,40
587,91	2370,10
588,37	2345,80
588,83	2353,70
589,28	2342,10
589,74	2341,70
590,19	2340,30
590,65	2343,90
591,11	2332,10
591,56	2325,20
592,02	2345,60
592,47	2334,20
592,93	2343,50
593,39	2346,50
593,84	2346,00
594,30	2334,30
594,75	2328,70
595,21	2334,40
595,66	2322,40
596,12	2319,20
596,58	2337,20
597,03	2330,40
597,49	2331,20
597,94	2327,60
598,40	2316,90
598,85	2325,90
599,31	2344,20
599,76	2323,20
600,22	2335,10
600,67	2340,90
601,13	2330,90
601,59	2329,80
602,04	2313,70
602,50	2346,40
602,95	2317,20
603,41	2319,90
603,86	2313,00
604,32	2305,60
604,77	2329,20
605,23	2315,90
605,68	2326,10
606,14	2323,50
606,59	2313,40
607,05	2326,40
607,50	2324,90
607,96	2329,50
608,41	2337,30
608,87	2333,40
609,32	2367,00
609,78	2367,30
610,23	2379,80
610,69	2421,90
611,14	2523,50
611,60	2606,10
612,05	2587,10
612,50	2498,70
612,96	2433,00
613,41	2440,60
613,87	2392,90
614,32	2384,10
614,78	2380,10
615,23	2373,60
615,69	2366,10
616,14	2358,90
616,59	2342,70
617,05	2340,80
617,50	2344,60
617,96	2342,10
618,41	2334,30
618,87	2332,50
619,32	2334,60
619,77	2345,90
620,23	2338,60
620,68	2347,10
621,14	2353,60
621,59	2334,70
622,05	2341,20
622,50	2350,50
622,95	2345,10
623,41	2331,30
623,86	2331,90
624,32	2342,90
624,77	2327,10
625,22	2331,80
625,68	2334,30
626,13	2320,50
626,58	2329,60
627,04	2329,90
627,49	2324,00
627,95	2334,00
628,40	2334,80
628,85	2318,60
629,31	2327,00
629,76	2330,50
630,21	2328,00
630,67	2348,90
631,12	2352,40
631,57	2355,70
632,03	2344,90
632,48	2338,00
632,93	2319,40
633,39	2313,40
633,84	2313,70
634,29	2312,80
634,75	2310,00
635,20	2315,60
635,65	2309,30
636,11	2305,60
636,56	2317,00
637,01	2312,20
637,47	2307,90
637,92	2320,70
638,37	2317,30
638,83	2312,20
639,28	2317,20
639,73	2304,50
640,18	2305,70
640,64	2315,70
641,09	2324,40
641,54	2301,20
642,00	2309,50
642,45	2310,80
642,90	2304,70
643,35	2311,80
643,81	2315,90
644,26	2308,20
644,71	2307,40
645,17	2310,60
645,62	2304,70
646,07	2312,90
646,52	2317,90
646,98	2314,60
647,43	2317,80
647,88	2312,60
648,33	2316,40
648,79	2303,80
649,24	2321,60
649,69	2319,90
650,14	2353,80
650,59	2318,00
651,05	2314,00
651,50	2314,40
651,95	2316,80
652,40	2308,40
652,86	2314,30
653,31	2306,80
653,76	2305,90
654,21	2317,50
654,66	2314,40
655,12	2310,90
655,57	2308,60
656,02	2315,50
656,47	2308,00
656,92	2310,00
657,38	2316,70
657,83	2318,00
658,28	2308,20
658,73	2313,90
659,18	2303,90
659,63	2351,30
660,09	2308,20
660,54	2318,00
660,99	2305,00
661,44	2306,60
661,89	2311,50
662,34	2307,50
662,80	2308,20
663,25	2321,30
663,70	2306,90
664,15	2309,90
664,60	2308,70
665,05	2308,00
665,50	2314,30
665,96	2302,40
666,41	2314,10
666,86	2317,10
667,31	2334,30
667,76	2326,00
668,21	2307,80
668,66	2316,70
669,11	2308,80
669,56	2334,90
670,02	2297,50
670,47	2303,50
670,92	2324,30
671,37	2316,20
671,82	2332,70
672,27	2337,40
672,72	2313,80
673,17	2316,10
673,62	2324,40
674,07	2338,10
674,52	2312,70
674,98	2315,80
675,43	2300,30
675,88	2308,00
676,33	2312,60
676,78	2306,20
677,23	2310,50
677,68	2309,90
678,13	2335,10
678,58	2307,60
679,03	2307,40
679,48	2315,90
679,93	2312,30
680,38	2312,10
680,83	2307,20
681,28	2295,60
681,73	2297,50
682,18	2310,30
682,63	2307,80
683,08	2315,60
683,53	2316,30
683,98	2311,20
684,43	2322,00
684,89	2312,00
685,34	2312,90
685,79	2310,00
686,24	2308,40
686,69	2308,40
687,14	2312,00
687,59	2310,40
688,04	2322,20
688,49	2313,90
688,93	2337,80
689,38	2318,50
689,83	2299,90
690,28	2316,40
690,73	2343,80
691,18	2351,10
691,63	2334,70
692,08	2307,00
692,53	2309,30
692,98	2310,60
693,43	2320,30
693,88	2319,40
694,33	2315,70
694,78	2312,50
695,23	2352,70
695,68	2315,50
696,13	2339,00
696,58	2446,50
697,03	2458,50
697,48	2371,90
697,93	2332,50
698,38	2307,00
698,82	2319,60
699,27	2319,60
699,72	2304,10
700,17	2308,60
700,62	2315,30
701,07	2321,30
701,52	2348,40
701,97	2301,10
702,42	2322,40
702,87	2304,50
703,32	2307,90
703,76	2311,70
704,21	2310,20
704,66	2307,00
705,11	2325,10
705,56	2321,20
706,01	2329,20
706,46	2321,10
706,91	2359,50
707,36	2353,50
707,80	2335,90
708,25	2341,20
708,70	2339,90
709,15	2339,60
709,60	2329,90
710,05	2328,90
710,50	2319,30
710,94	2310,30
711,39	2320,80
711,84	2316,30
712,29	2324,80
712,74	2321,30
713,19	2344,50
713,63	2319,30
714,08	2322,50
714,53	2325,40
714,98	2321,90
715,43	2310,00
715,87	2313,80
716,32	2302,30
716,77	2310,40
717,22	2305,80
717,67	2301,10
718,12	2315,00
718,56	2328,20
719,01	2308,10
719,46	2303,80
719,91	2312,90
720,35	2311,10
720,80	2304,70
721,25	2308,50
721,70	2302,00
722,15	2315,40
722,59	2309,90
723,04	2299,20
723,49	2299,80
723,94	2312,70
724,38	2302,30
724,83	2310,80
725,28	2302,70
725,73	2307,50
726,17	2306,60
726,62	2314,70
727,07	2343,40
727,52	2337,70
727,96	2349,50
728,41	2328,70
728,86	2308,40
729,31	2321,40
729,75	2306,00
730,20	2319,40
730,65	2304,50
731,09	2307,90
731,54	2315,30
731,99	2311,80
732,44	2310,80
732,88	2303,50
733,33	2313,20
733,78	2311,90
734,22	2302,10
734,67	2318,90
735,12	2313,70
735,57	2309,00
736,01	2333,30
736,46	2305,10
736,91	2315,30
737,35	2319,30
737,80	2324,80
738,25	2347,00
738,69	2368,60
739,14	2355,10
739,59	2316,90
740,03	2328,10
740,48	2317,80
740,93	2304,30
741,37	2308,60
741,82	2314,70
742,26	2308,70
742,71	2307,20
743,16	2302,60
743,60	2307,40
744,05	2307,10
744,50	2319,50
744,94	2318,10
745,39	2317,00
745,84	2319,10
746,28	2323,40
746,73	2292,60
747,17	2300,50
747,62	2299,80
748,07	2312,50
748,51	2309,10
748,96	2308,40
749,40	2317,90
749,85	2353,20
750,30	2394,30
750,74	2424,80
751,19	2402,20
751,63	2389,20
752,08	2363,50
752,53	2334,60
752,97	2335,30
753,42	2307,80
753,86	2311,20
754,31	2297,50
754,75	2305,40
755,20	2299,90
755,64	2302,10
756,09	2309,40
756,54	2317,40
756,98	2307,90
757,43	2326,60
757,87	2311,90
758,32	2309,10
758,76	2307,10
759,21	2308,80
759,65	2302,00
760,10	2312,50
760,54	2313,00
760,99	2312,60
761,43	2321,30
761,88	2326,00
762,33	2318,10
762,77	2346,40
763,22	2499,90
763,66	2755,50
764,11	2712,00
764,55	2513,20
765,00	2372,50
765,44	2340,00
765,89	2319,30
766,33	2310,40
766,77	2310,70
767,22	2313,70
767,66	2317,20
768,11	2317,00
768,55	2315,60
769,00	2313,80
769,44	2327,50
769,89	2309,70
770,33	2312,20
770,78	2310,40
771,22	2309,50
771,67	2335,60
772,11	2417,70
772,56	2535,90
773,00	2515,70
773,44	2430,90
773,89	2340,70
774,33	2311,80
774,78	2318,10
775,22	2306,90
775,67	2312,40
776,11	2309,60
776,55	2303,60
777,00	2303,70
777,44	2304,70
777,89	2315,50
778,33	2313,90
778,77	2305,60
779,22	2310,00
779,66	2336,20
780,11	2318,00
780,55	2311,20
780,99	2315,30
781,44	2311,80
781,88	2305,10
782,33	2307,90
782,77	2303,50
783,21	2308,70
783,66	2316,30
784,10	2315,00
784,55	2306,60
784,99	2305,30
785,43	2307,60
785,88	2302,60
786,32	2309,20
786,76	2318,20
787,21	2322,30
787,65	2304,00
788,09	2299,60
788,54	2310,40
788,98	2321,60
789,42	2307,40
789,87	2302,50
790,31	2310,90
790,75	2302,10
791,20	2302,20
791,64	2312,40
792,08	2306,20
792,53	2309,40
792,97	2308,00
793,41	2349,10
793,86	2320,30
794,30	2333,50
794,74	2385,50
795,18	2390,60
795,63	2377,20
796,07	2339,50
796,51	2317,10
796,96	2312,30
797,40	2307,70
797,84	2302,80
798,28	2308,30
798,73	2319,50
799,17	2314,00
799,61	2306,10
800,06	2340,00
800,50	2366,20
800,94	2374,30
801,38	2418,80
801,83	2384,50
802,27	2358,60
802,71	2341,60
803,15	2329,40
803,60	2318,60
804,04	2314,90
804,48	2308,70
804,92	2304,90
805,37	2324,30
805,81	2328,90
806,25	2322,80
806,69	2315,60
807,13	2332,30
807,58	2308,80
808,02	2311,60
808,46	2310,70
808,90	2316,30
809,34	2320,10
809,79	2332,70
810,23	2385,30
810,67	2421,60
811,11	2524,20
811,55	2609,30
812,00	2573,50
812,44	2507,10
812,88	2384,80
813,32	2351,10
813,76	2325,10
814,21	2319,30
814,65	2322,80
815,09	2321,10
815,53	2314,40
815,97	2307,10
816,41	2304,20
816,85	2307,70
817,30	2315,70
817,74	2310,90
818,18	2320,30
818,62	2310,80
819,06	2314,40
819,50	2320,60
819,94	2305,80
820,39	2313,90
820,83	2303,90
821,27	2313,10
821,71	2306,70
822,15	2322,30
822,59	2305,60
823,03	2305,20
823,47	2317,30
823,92	2298,90
824,36	2311,10
824,80	2312,90
825,24	2324,70
825,68	2346,10
826,12	2416,50
826,56	2445,80
827,00	2469,50
827,44	2428,10
827,88	2361,10
828,32	2338,40
828,77	2312,20
829,21	2322,20
829,65	2317,00
830,09	2306,90
830,53	2326,30
830,97	2310,40
831,41	2329,20
831,85	2316,40
832,29	2315,20
832,73	2299,00
833,17	2307,50
833,61	2306,50
834,05	2321,40
834,49	2315,40
834,93	2304,00
835,37	2301,30
835,81	2317,50
836,25	2305,70
836,69	2313,90
837,13	2305,10
837,57	2315,10
838,01	2307,50
838,45	2309,30
838,89	2312,00
839,33	2310,50
839,77	2332,20
840,21	2365,00
840,65	2388,60
841,09	2397,50
841,53	2409,60
841,97	2406,00
842,41	2410,90
842,85	2418,10
843,29	2428,50
843,73	2349,60
844,17	2330,40
844,61	2313,30
845,05	2308,10
845,49	2318,90
845,93	2308,60
846,37	2315,40
846,81	2304,90
847,25	2306,40
847,69	2310,50
848,13	2306,50
848,57	2307,20
849,01	2307,00
849,45	2312,50
849,89	2319,80
850,32	2310,40
850,76	2304,30
851,20	2324,90
851,64	2326,70
852,08	2348,20
852,52	2357,20
852,96	2347,30
853,40	2321,60
853,84	2318,80
854,28	2304,40
854,72	2316,00
855,16	2297,70
855,59	2303,30
856,03	2320,00
856,47	2325,80
856,91	2309,60
857,35	2308,00
857,79	2307,00
858,23	2300,70
858,67	2320,20
859,10	2299,30
859,54	2300,60
859,98	2305,20
860,42	2306,00
860,86	2307,50
861,30	2311,60
861,74	2302,50
862,17	2305,20
862,61	2316,30
863,05	2299,70
863,49	2306,00
863,93	2315,20
864,37	2300,30
864,80	2312,20
865,24	2311,40
865,68	2300,20
866,12	2311,40
866,56	2299,00
867,00	2318,30
867,43	2307,30
867,87	2316,20
868,31	2309,30
868,75	2305,50
869,19	2312,60
869,62	2304,50
870,06	2321,10
870,50	2328,80
870,94	2300,40
871,38	2307,50
871,81	2309,40
872,25	2298,90
872,69	2306,90
873,13	2308,90
873,56	2306,10
874,00	2314,20
874,44	2316,80
874,88	2308,00
875,31	2297,20
875,75	2316,90
876,19	2295,00
876,63	2311,80
877,06	2309,40
877,50	2309,70
877,94	2311,70
878,38	2308,00
878,81	2311,30
879,25	2306,80
879,69	2325,40
880,13	2299,80
880,56	2299,70
881,00	2304,00
881,44	2303,60
881,87	2317,70
882,31	2307,70
882,75	2303,20
883,19	2307,40
883,62	2303,40
884,06	2297,80
884,50	2310,10
884,93	2311,80
885,37	2311,90
885,81	2310,70
886,24	2306,50
886,68	2302,10
887,12	2319,00
887,55	2301,40
887,99	2297,20
888,43	2307,30
888,86	2304,80
889,30	2339,90
889,74	2297,40
890,17	2312,50
890,61	2304,40
891,05	2308,30
891,48	2314,60
891,92	2294,90
892,36	2300,80
892,79	2306,70
893,23	2299,10
893,67	2305,20
894,10	2309,30
894,54	2305,90
894,97	2310,50
895,41	2305,60
895,85	2298,60
896,28	2305,20
896,72	2311,10
897,16	2301,20
897,59	2302,80
898,03	2306,10
898,46	2307,60
898,90	2317,10
899,34	2299,20
899,77	2304,30
900,21	2306,60
900,64	2311,50
901,08	2311,20
901,51	2304,80
901,95	2325,50
902,39	2323,80
902,82	2301,90
903,26	2309,40
903,69	2323,20
904,13	2304,50
904,56	2310,00
905,00	2303,70
905,43	2307,90
905,87	2303,70
906,31	2318,00
906,74	2314,90
907,18	2320,40
907,61	2315,90
908,05	2312,10
908,48	2319,30
908,92	2321,10
909,35	2315,80
909,79	2310,80
910,22	2324,50
910,66	2329,60
911,09	2348,20
911,53	2443,40
911,96	2514,50
912,40	2469,50
912,83	2607,80
913,27	2522,90
913,70	2397,30
914,14	2347,90
914,57	2318,90
915,01	2313,80
915,44	2320,20
915,88	2312,20
916,31	2320,90
916,75	2307,80
917,18	2318,80
917,62	2304,60
918,05	2319,00
918,49	2309,70
918,92	2307,70
919,35	2311,60
919,79	2315,30
920,22	2319,80
920,66	2314,20
921,09	2328,80
921,53	2334,30
921,96	2353,30
922,40	2327,70
922,83	2353,90
923,26	2360,10
923,70	2346,80
924,13	2321,10
924,57	2306,40
925,00	2319,50
925,44	2302,10
925,87	2321,80
926,30	2323,20
926,74	2311,10
927,17	2315,70
927,61	2298,60
928,04	2328,00
928,47	2308,70
928,91	2297,40
929,34	2312,00
929,77	2306,50
930,21	2313,10
930,64	2315,70
931,08	2305,40
931,51	2312,90
931,94	2300,80
932,38	2318,80
932,81	2321,40
933,24	2330,90
933,68	2301,60
934,11	2321,90
934,54	2319,30
934,98	2312,80
935,41	2309,90
935,84	2296,80
936,28	2306,70
936,71	2304,10
937,14	2308,50
937,58	2297,10
938,01	2311,30
938,44	2305,40
938,88	2304,40
939,31	2312,40
939,74	2297,50
940,18	2309,30
940,61	2315,90
941,04	2328,60
941,48	2300,70
941,91	2314,30
942,34	2302,30
942,77	2306,00
943,21	2313,40
943,64	2295,80
944,07	2299,00
944,51	2308,00
944,94	2310,20
945,37	2314,00
945,80	2305,30
946,24	2303,10
946,67	2315,10
947,10	2316,60
947,53	2305,40
947,97	2307,30
948,40	2306,20
948,83	2301,00
949,26	2299,20
949,70	2304,50
950,13	2327,30
950,56	2320,60
950,99	2302,50
951,43	2306,60
951,86	2310,50
952,29	2296,60
952,72	2313,80
953,15	2305,30
953,59	2324,20
954,02	2296,80
954,45	2302,80
954,88	2300,90
955,31	2303,30
955,75	2305,00
956,18	2314,00
956,61	2296,40
957,04	2313,60
957,47	2335,00
957,91	2300,80
958,34	2313,30
958,77	2312,30
959,20	2301,80
959,63	2303,10
960,06	2301,30
960,50	2293,90
960,93	2305,20
961,36	2313,60
961,79	2309,10
962,22	2317,90
962,65	2320,20
963,09	2304,20
963,52	2309,90
963,95	2312,40
964,38	2318,30
964,81	2334,50
965,24	2338,90
965,67	2337,70
966,10	2357,90
966,54	2356,30
966,97	2339,50
967,40	2319,30
967,83	2309,40
968,26	2321,20
968,69	2351,50
969,12	2316,30
969,55	2307,10
969,98	2313,90
970,42	2302,70
970,85	2307,20
971,28	2310,70
971,71	2308,60
972,14	2306,80
972,57	2297,00
973,00	2302,50
973,43	2308,90
973,86	2313,50
974,29	2304,90
974,72	2313,80
975,15	2311,70
975,58	2301,40
976,01	2305,60
976,45	2304,90
976,88	2313,10
977,31	2300,60
977,74	2316,40
978,17	2307,80
978,60	2305,00
979,03	2309,30
979,46	2305,60
979,89	2312,90
980,32	2309,70
980,75	2298,60
981,18	2307,10
981,61	2319,80
982,04	2308,80
982,47	2305,80
982,90	2301,90
983,33	2301,80
983,76	2300,50
984,19	2316,70
984,62	2319,00
985,05	2301,60
985,48	2295,20
985,91	2308,20
986,34	2314,70
986,77	2302,50
987,20	2300,30
987,63	2311,30
988,06	2307,80
988,49	2310,00
988,92	2308,50
989,35	2311,20
989,78	2303,60
990,20	2308,20
990,63	2312,70
991,06	2309,80
991,49	2311,00
991,92	2321,10
992,35	2306,90
992,78	2302,70
993,21	2306,30
993,64	2301,40
994,07	2305,70
994,50	2315,60
994,93	2315,50
995,36	2308,50
995,79	2310,40
996,21	2300,00
996,64	2306,90
997,07	2301,00
997,50	2323,50
997,93	2322,30
998,36	2309,30
998,79	2314,60
999,22	2307,30
999,65	2325,30
1000,07	2316,00
1000,50	2325,60
1000,93	2329,90
1001,36	2319,20
1001,79	2315,40
1002,22	2326,30
1002,65	2323,20
1003,08	2327,30
1003,50	2321,70
1003,93	2333,50
1004,36	2319,50
1004,79	2333,00
1005,22	2338,00
1005,65	2351,20
1006,07	2339,40
1006,50	2333,60
1006,93	2354,80
1007,36	2349,00
1007,79	2355,20
1008,22	2350,60
1008,64	2363,90
1009,07	2377,80
1009,50	2417,80
1009,93	2407,40
1010,36	2413,20
1010,78	2423,80
1011,21	2437,00
1011,64	2472,10
1012,07	2504,60
1012,50	2643,80
1012,92	2941,00
1013,35	2911,70
1013,78	2823,50
1014,21	3160,60
1014,64	3221,00
1015,06	2837,10
1015,49	2654,70
1015,92	2531,70
1016,35	2488,80
1016,77	2445,90
1017,20	2440,00
1017,63	2416,80
1018,06	2562,50
1018,48	2384,90
1018,91	2373,70
1019,34	2400,40
1019,77	2379,00
1020,19	2368,20
1020,62	2351,20
1021,05	2352,70
1021,47	2345,50
1021,90	2344,00
1022,33	2340,60
1022,76	2337,70
1023,18	2362,50
1023,61	2340,80
1024,04	2338,80
1024,46	2329,80
1024,89	2327,60
1025,32	2326,20
1025,75	2324,30
1026,17	2315,80
1026,60	2315,30
1027,03	2332,50
1027,45	2320,60
1027,88	2322,40
1028,31	2316,10
1028,73	2317,60
1029,16	2307,30
1029,59	2335,90
1030,01	2315,20
1030,44	2316,20
1030,87	2316,50
1031,29	2323,90
1031,72	2301,70
1032,15	2314,20
1032,57	2317,60
1033,00	2310,30
1033,42	2321,80
1033,85	2301,30
1034,28	2304,90
1034,70	2312,60
1035,13	2314,40
1035,56	2306,30
1035,98	2326,80
1036,41	2306,70
1036,83	2304,20
1037,26	2305,00
1037,69	2299,10
1038,11	2315,50
1038,54	2310,50
1038,96	2315,80
1039,39	2322,90
1039,82	2319,90
1040,24	2305,10
1040,67	2305,00
1041,09	2307,90
1041,52	2301,70
1041,95	2315,40
1042,37	2323,20
1042,80	2318,40
1043,22	2316,50
1043,65	2308,10
1044,07	2316,60
1044,50	2300,50
1044,92	2306,60
1045,35	2305,20
1045,78	2301,70
1046,20	2315,20
1046,63	2313,80
1047,05	2305,20
1047,48	2309,70
1047,90	2321,70
1048,33	2298,30
1048,75	2312,00
1049,18	2312,40
1049,60	2318,70
1050,03	2307,40
1050,45	2307,10
1050,88	2311,70
1051,30	2313,40
1051,73	2321,10
1052,15	2318,80
1052,58	2309,60
1053,00	2316,80
1053,43	2295,50
1053,85	2310,00
1054,28	2299,10
1054,70	2308,30
1055,13	2303,30
1055,55	2311,10
1055,98	2308,30
1056,40	2327,00
1056,83	2311,20
1057,25	2315,60
1057,68	2312,00
1058,10	2345,90
1058,52	2297,10
1058,95	2313,90
1059,37	2314,60
1059,80	2304,50
1060,22	2302,30
1060,65	2301,60
1061,07	2312,80
1061,50	2310,80
1061,92	2308,90
1062,34	2310,30
1062,77	2317,20
1063,19	2309,60
1063,62	2303,80
1064,04	2303,70
1064,46	2318,60
1064,89	2314,50
1065,31	2305,00
1065,74	2308,20
1066,16	2300,10
1066,58	2315,80
1067,01	2311,10
1067,43	2309,30
1067,86	2311,00
1068,28	2307,30
1068,70	2326,60
1069,13	2310,70
1069,55	2303,10
1069,97	2300,40
1070,40	2313,30
1070,82	2315,30
1071,25	2317,40
1071,67	2308,10
1072,09	2311,70
1072,52	2301,90
1072,94	2301,30
1073,36	2303,70
1073,79	2313,20
1074,21	2307,90
1074,63	2299,20
1075,06	2304,10
1075,48	2310,40
1075,90	2305,30
1076,33	2299,50
1076,75	2304,20
1077,17	2308,70
1077,59	2314,50
1078,02	2302,40
1078,44	2311,50
1078,86	2316,50
1079,29	2292,60
1079,71	2309,50
1080,13	2307,20
1080,56	2305,40
1080,98	2317,80
1081,40	2309,80
1081,82	2307,30
1082,25	2310,00
1082,67	2305,10
1083,09	2306,80
1083,51	2316,90
1083,94	2308,60
1084,36	2312,30
1084,78	2309,10
1085,21	2307,50
1085,63	2317,10
1086,05	2302,30
1086,47	2302,90
1086,89	2310,90
1087,32	2296,80
1087,74	2313,30
1088,16	2590,50
1088,58	2307,40
1089,01	2299,40
1089,43	2300,00
1089,85	2304,90
1090,27	2319,80
1090,69	2307,30
1091,12	2300,80
1091,54	2313,80
1091,96	2307,50
1092,38	2300,70
1092,80	2309,00
1093,23	2301,90
1093,65	2309,80
1094,07	2302,20
1094,49	2305,80
1094,91	2306,10
1095,34	2309,80
1095,76	2301,90
1096,18	2308,00
1096,60	2307,70
1097,02	2299,30
1097,44	2307,50
1097,87	2305,70
1098,29	2310,80
1098,71	2311,40
1099,13	2317,00
1099,55	2309,20
1099,97	2306,30
1100,39	2299,30
1100,82	2305,70
1101,24	2300,40
1101,66	2308,00
1102,08	2299,10
1102,50	2301,60
1102,92	2304,30
1103,34	2304,10
1103,76	2306,90
1104,19	2361,90
1104,61	2318,40
1105,03	2296,90
1105,45	2306,90
1105,87	2309,10
1106,29	2299,30
1106,71	2304,10
1107,13	2293,50
1107,55	2292,90
1107,97	2312,70
1108,39	2298,10
1108,82	2310,70
1109,24	2302,90
1109,66	2307,30
1110,08	2291,10
1110,50	2301,50
1110,92	2299,40
1111,34	2301,30
1111,76	2291,10
1112,18	2299,30
1112,60	2292,60
1113,02	2301,20
1113,44	2297,30
1113,86	2300,60
1114,28	2305,70
1114,70	2310,80
1115,12	2299,70
1115,54	2304,40
1115,96	2302,50
1116,38	2309,40
1116,80	2299,00
1117,22	2299,40
1117,64	2298,30
1118,06	2181,80
1118,48	2185,90
1118,90	2185,20
1119,32	2185,30
>>>>>End Processed Spectral Data<<<<<
